2.97491864652239e+002 7.95762781339545e+013
2.97555376277378e+002 7.87088472927099e+013
2.97618880245981e+002 7.80773587728339e+013
2.97682376556197e+002 7.77799315435121e+013
2.97745865206179e+002 7.78856839874048e+013
2.97809346194076e+002 7.84188622776712e+013
2.97872819518039e+002 7.93510166601855e+013
2.97936285176219e+002 8.06030040268827e+013
2.97999743166768e+002 8.20560270076263e+013
2.98063193487835e+002 8.35685528737487e+013
2.98126636137571e+002 8.49947445816132e+013
2.98190071114128e+002 8.62005424438593e+013
2.98253498415656e+002 8.70753668058781e+013
2.98316918040306e+002 8.75394150145448e+013
2.98380329986229e+002 8.75476514485948e+013
2.98443734251575e+002 8.70915951879530e+013
2.98507130834496e+002 8.61993980181154e+013
2.98570519733141e+002 8.49341384586785e+013
2.98633900945662e+002 8.33900561344673e+013
2.98697274470210e+002 8.16864975604223e+013
2.98760640304936e+002 7.99593571739986e+013
2.98823998447989e+002 7.83497192363196e+013
2.98887348897522e+002 7.69895624076240e+013
2.98950691651684e+002 7.59852042748774e+013
2.99014026708628e+002 7.54006444476950e+013
2.99077354066502e+002 7.52444828956373e+013
2.99140673723459e+002 7.54647180161253e+013
2.99203985677648e+002 7.59548297818708e+013
2.99267289927222e+002 7.65721217430640e+013
2.99330586470330e+002 7.71658938560979e+013
2.99393875305123e+002 7.76095802572876e+013
2.99457156429753e+002 7.78286557908300e+013
2.99520429842369e+002 7.78160028394282e+013
2.99583695541123e+002 7.76291718969158e+013
2.99646953524166e+002 7.73692139554959e+013
2.99710203789648e+002 7.71469317887595e+013
2.99773446335720e+002 7.70470567937058e+013
2.99836681160533e+002 7.71018126714382e+013
2.99899908262238e+002 7.72819272125747e+013
2.99963127638985e+002 7.75068634552144e+013
3.00026339288925e+002 7.76696740213872e+013
3.00089543210210e+002 7.76679704474473e+013
3.00152739400989e+002 7.74319996240350e+013
3.00215927859414e+002 7.69429767198744e+013
3.00279108583636e+002 7.62380943280054e+013
3.00342281571804e+002 7.54018118759715e+013
3.00405446822071e+002 7.45457684187762e+013
3.00468604332587e+002 7.37820650229807e+013
3.00531754101502e+002 7.31965588396340e+013
3.00594896126967e+002 7.28294348432866e+013
3.00658030407134e+002 7.26687598287658e+013
3.00721156940153e+002 7.26588313938974e+013
3.00784275724174e+002 7.27201149444360e+013
3.00847386757349e+002 7.27735958510743e+013
3.00910490037829e+002 7.27614042215648e+013
3.00973585563763e+002 7.26580326895684e+013
3.01036673333304e+002 7.24709510339373e+013
3.01099753344601e+002 7.22335373365909e+013
3.01162825595805e+002 7.19951009552904e+013
3.01225890085069e+002 7.18119696956787e+013
3.01288946810541e+002 7.17412051112726e+013
3.01351995770373e+002 7.18361480639699e+013
3.01415036962715e+002 7.21419526098863e+013
3.01478070385720e+002 7.26898320692652e+013
3.01541096037536e+002 7.34902420998999e+013
3.01604113916316e+002 7.45266023475689e+013
3.01667124020209e+002 7.57517080199928e+013
3.01730126347367e+002 7.70886946406015e+013
3.01793120895941e+002 7.84376754514925e+013
3.01856107664080e+002 7.96882227231960e+013
3.01919086649937e+002 8.07366303069717e+013
3.01982057851662e+002 8.15052662223887e+013
3.02045021267405e+002 8.19596304907455e+013
3.02107976895317e+002 8.21178734048516e+013
3.02170924733550e+002 8.20485466528295e+013
3.02233864780254e+002 8.18556423861479e+013
3.02296797033579e+002 8.16546362697949e+013
3.02359721491677e+002 8.15472111108756e+013
3.02422638152699e+002 8.16032971437987e+013
3.02485547014794e+002 8.18559623972678e+013
3.02548448076115e+002 8.23087236446937e+013
3.02611341334811e+002 8.29491483362790e+013
3.02674226789034e+002 8.37604115042513e+013
3.02737104436934e+002 8.47249771417272e+013
3.02799974276662e+002 8.58201696587627e+013
3.02862836306369e+002 8.70107016248766e+013
3.02925690524206e+002 8.82451911724068e+013
3.02988536928323e+002 8.94613678363987e+013
3.03051375516872e+002 9.05995560332464e+013
3.03114206288002e+002 9.16191674963653e+013
3.03177029239866e+002 9.25109898785800e+013
3.03239844370613e+002 9.32997773850349e+013
3.03302651678394e+002 9.40356874041064e+013
3.03365451161361e+002 9.47772778482925e+013
3.03428242817664e+002 9.55714867503825e+013
3.03491026645453e+002 9.64367590761048e+013
3.03553802642880e+002 9.73544387564878e+013
3.03616570808096e+002 9.82710622055228e+013
3.03679331139251e+002 9.91108046839485e+013
3.03742083634495e+002 9.97939756774211e+013
3.03804828291981e+002 1.00255420962490e+014
3.03867565109858e+002 1.00457044660879e+014
3.03930294086278e+002 1.00391521652547e+014
3.03993015219390e+002 1.00078354991830e+014
3.04055728507347e+002 9.95565550685209e+013
3.04118433948298e+002 9.88785507442902e+013
3.04181131540395e+002 9.81073480316100e+013
3.04243821281788e+002 9.73152321315003e+013
3.04306503170628e+002 9.65800356401812e+013
3.04369177205066e+002 9.59757549882903e+013
3.04431843383253e+002 9.55577031303059e+013
3.04494501703339e+002 9.53464499300360e+013
3.04557152163475e+002 9.53171603752621e+013
3.04619794761813e+002 9.54001419510667e+013
3.04682429496502e+002 9.54946502368771e+013
3.04745056365694e+002 9.54929971564490e+013
3.04807675367540e+002 9.53080668905779e+013
3.04870286500190e+002 9.48961085494616e+013
3.04932889761794e+002 9.42683908353036e+013
3.04995485150505e+002 9.34889873757810e+013
3.05058072664472e+002 9.26601019223791e+013
3.05120652301847e+002 9.18995754285794e+013
3.05183224060779e+002 9.13166956968676e+013
3.05245787939421e+002 9.09919640766249e+013
3.05308343935923e+002 9.09644845915361e+013
3.05370892048435e+002 9.12279634159295e+013
3.05433432275108e+002 9.17339191426805e+013
3.05495964614094e+002 9.23994600046885e+013
3.05558489063542e+002 9.31172993346872e+013
3.05621005621604e+002 9.37671885495589e+013
3.05683514286431e+002 9.42294639886368e+013
3.05746015056173e+002 9.44015430170556e+013
3.05808507928981e+002 9.42164114051571e+013
3.05870992903006e+002 9.36593326781821e+013
3.05933469976399e+002 9.27771289754932e+013
3.05995939147310e+002 9.16751031013386e+013
3.06058400413891e+002 9.05001682342580e+013
3.06120853774291e+002 8.94135076125808e+013
3.06183299226663e+002 8.85598207169237e+013
3.06245736769156e+002 8.80412176344166e+013
3.06308166399921e+002 8.79018396856656e+013
3.06370588117110e+002 8.81254953676665e+013
3.06433001918873e+002 8.86448528837014e+013
3.06495407803360e+002 8.93584631307149e+013
3.06557805768723e+002 9.01514127266664e+013
3.06620195813113e+002 9.09160092388814e+013
3.06682577934680e+002 9.15696061101904e+013
3.06744952131574e+002 9.20670383302295e+013
3.06807318401948e+002 9.24054822657398e+013
3.06869676743951e+002 9.26205373745919e+013
3.06932027155734e+002 9.27742599560213e+013
3.06994369635449e+002 9.29382301189166e+013
3.07056704181245e+002 9.31763289489096e+013
3.07119030791274e+002 9.35317401927741e+013
3.07181349463687e+002 9.40207735236125e+013
3.07243660196634e+002 9.46335202735344e+013
3.07305962988266e+002 9.53394539226754e+013
3.07368257836734e+002 9.60955263122927e+013
3.07430544740189e+002 9.68547616227972e+013
3.07492823696781e+002 9.75740525661083e+013
3.07555094704661e+002 9.82203038821257e+013
3.07617357761981e+002 9.87742039138638e+013
3.07679612866890e+002 9.92309655338227e+013
3.07741860017540e+002 9.95976347603174e+013
3.07804099212082e+002 9.98871935142858e+013
3.07866330448665e+002 1.00110640442351e+014
3.07928553725442e+002 1.00269197246362e+014
3.07990769040562e+002 1.00349297711249e+014
3.08052976392177e+002 1.00322715933732e+014
3.08115175778438e+002 1.00152953767658e+014
3.08177367197495e+002 9.98069592291031e+013
3.08239550647498e+002 9.92689025155276e+013
3.08301726126600e+002 9.85510967787213e+013
3.08363893632950e+002 9.76973511007415e+013
3.08426053164699e+002 9.67765255408006e+013
3.08488204719998e+002 9.58679358635795e+013
3.08550348296999e+002 9.50436291576243e+013
3.08612483893851e+002 9.43536427184590e+013
3.08674611508706e+002 9.38186329046625e+013
3.08736731139714e+002 9.34307541155655e+013
3.08798842785026e+002 9.31603033297056e+013
3.08860946442793e+002 9.29641103686383e+013
3.08923042111165e+002 9.27924746035933e+013
3.08985129788294e+002 9.25938099966505e+013
3.09047209472331e+002 9.23184758374747e+013
3.09109281161425e+002 9.19241018084821e+013
3.09171344853728e+002 9.13835611617922e+013
3.09233400547391e+002 9.06943108393087e+013
3.09295448240565e+002 8.98856416960094e+013
3.09357487931399e+002 8.90199355442400e+013
3.09419519618046e+002 8.81857712491613e+013
3.09481543298655e+002 8.74837850835276e+013
3.09543558971378e+002 8.70089150733890e+013
3.09605566634366e+002 8.68336792659540e+013
3.09667566285768e+002 8.69961876597066e+013
3.09729557923737e+002 8.74945321418876e+013
3.09791541546422e+002 8.82873539575300e+013
3.09853517151975e+002 8.92996301225913e+013
3.09915484738546e+002 9.04329525822206e+013
3.09977444304287e+002 9.15798727099930e+013
3.10039395847347e+002 9.26412719407472e+013
3.10101339365878e+002 9.35440733796176e+013
3.10163274858031e+002 9.42549811989119e+013
3.10225202321955e+002 9.47858510189316e+013
3.10287121755803e+002 9.51884962870849e+013
3.10349033157725e+002 9.55404159865530e+013
3.10410936525872e+002 9.59261786571768e+013
3.10472831858394e+002 9.64203018250498e+013
3.10534719153442e+002 9.70759854673503e+013
3.10596598409168e+002 9.79209906208419e+013
3.10658469623721e+002 9.89590261105892e+013
3.10720332795253e+002 1.00173648124934e+014
3.10782187921914e+002 1.01532267118008e+014
3.10844035001855e+002 1.02989603531290e+014
3.10905874033228e+002 1.04491464578981e+014
3.10967705014182e+002 1.05980004620797e+014
3.11029527942869e+002 1.07400636173272e+014
3.11091342817439e+002 1.08709323456937e+014
3.11153149636044e+002 1.09878167890700e+014
3.11214948396833e+002 1.10897506458698e+014
3.11276739097959e+002 1.11773932399801e+014
3.11338521737570e+002 1.12524993592637e+014
3.11400296313820e+002 1.13172189352046e+014
3.11462062824857e+002 1.13734054653705e+014
3.11523821268833e+002 1.14220756227833e+014
3.11585571643899e+002 1.14631040942252e+014
3.11647313948206e+002 1.14951835125880e+014
3.11709048179903e+002 1.15160394523965e+014
3.11770774337143e+002 1.15228593156816e+014
3.11832492418076e+002 1.15128639874424e+014
3.11894202420852e+002 1.14839273826566e+014
3.11955904343623e+002 1.14351444451707e+014
3.12017598184540e+002 1.13672624998960e+014
3.12079283941752e+002 1.12829051333670e+014
3.12140961613411e+002 1.11865210297972e+014
3.12202631197668e+002 1.10840031952778e+014
3.12264292692673e+002 1.09819830800031e+014
3.12325946096577e+002 1.08869136280652e+014
3.12387591407532e+002 1.08041645900789e+014
3.12449228623687e+002 1.07373883691393e+014
3.12510857743194e+002 1.06883353272337e+014
3.12572478764203e+002 1.06571310167773e+014
3.12634091684865e+002 1.06428518832155e+014
3.12695696503332e+002 1.06441347326691e+014
3.12757293217753e+002 1.06595751712190e+014
3.12818881826279e+002 1.06877971201337e+014
3.12880462327062e+002 1.07272396719474e+014
3.12942034718253e+002 1.07758230772840e+014
3.13003598998001e+002 1.08306741796791e+014
3.13065155164458e+002 1.08880300839003e+014
3.13126703215774e+002 1.09433561317372e+014
3.13188243150101e+002 1.09916584191974e+014
3.13249774965588e+002 1.10279491642008e+014
3.13311298660388e+002 1.10478148227262e+014
3.13372814232650e+002 1.10480251366894e+014
3.13434321680526e+002 1.10271058460841e+014
3.13495821002166e+002 1.09857857970197e+014
3.13557312195721e+002 1.09272269522281e+014
3.13618795259342e+002 1.08569604832306e+014
3.13680270191180e+002 1.07824907732817e+014
3.13741736989385e+002 1.07125878796625e+014
3.13803195652108e+002 1.06563462134379e+014
3.13864646177501e+002 1.06221171543355e+014
3.13926088563713e+002 1.06164202790883e+014
3.13987522808895e+002 1.06429242356073e+014
3.14048948911199e+002 1.07015957680350e+014
3.14110366868776e+002 1.07881552149281e+014
3.14171776679775e+002 1.08940224611728e+014
3.14233178342348e+002 1.10069337873595e+014
3.14294571854645e+002 1.11123085083769e+014
3.14355957214818e+002 1.11952444171440e+014
3.14417334421017e+002 1.12427904553876e+014
3.14478703471393e+002 1.12459929060071e+014
3.14540064364097e+002 1.12012258527248e+014
3.14601417097279e+002 1.11105083366837e+014
3.14662761669091e+002 1.09808035209222e+014
3.14724098077682e+002 1.08225688567015e+014
3.14785426321205e+002 1.06479793118125e+014
3.14846746397809e+002 1.04692421903046e+014
3.14908058305646e+002 1.02972986138011e+014
3.14969362042866e+002 1.01410404238451e+014
3.15030657607620e+002 1.00070297432825e+014
3.15091944998058e+002 9.89961714037496e+013
3.15153224212333e+002 9.82130378092626e+013
3.15214495248594e+002 9.77317143742986e+013
3.15275758104992e+002 9.75521663596352e+013
3.15337012779678e+002 9.76648041895368e+013
3.15398259270803e+002 9.80495511980632e+013
3.15459497576518e+002 9.86734694035336e+013
3.15520727694972e+002 9.94884535532747e+013
3.15581949624319e+002 1.00430724079777e+014
3.15643163362707e+002 1.01423466467497e+014
3.15704368908288e+002 1.02383072303445e+014
3.15765566259212e+002 1.03228319252301e+014
3.15826755413631e+002 1.03890857234110e+014
3.15887936369695e+002 1.04324863373089e+014
3.15949109125554e+002 1.04513832049119e+014
3.16010273679361e+002 1.04473093302605e+014
3.16071430029265e+002 1.04247550229701e+014
3.16132578173417e+002 1.03905016454739e+014
3.16193718109969e+002 1.03526256901244e+014
3.16254849837070e+002 1.03193344401042e+014
3.16315973352872e+002 1.02978217854718e+014
3.16377088655526e+002 1.02933292569873e+014
3.16438195743182e+002 1.03085564423684e+014
3.16499294613990e+002 1.03434912812261e+014
3.16560385266103e+002 1.03956455471840e+014
3.16621467697670e+002 1.04606144960470e+014
3.16682541906843e+002 1.05328506327684e+014
3.16743607891772e+002 1.06065423737682e+014
3.16804665650608e+002 1.06764930525687e+014
3.16865715181502e+002 1.07388866337051e+014
3.16926756482604e+002 1.07918132410894e+014
3.16987789552066e+002 1.08354393384227e+014
3.17048814388038e+002 1.08717686504980e+014
3.17109830988671e+002 1.09040488195294e+014
3.17170839352115e+002 1.09359989282509e+014
3.17231839476523e+002 1.09711037218670e+014
3.17292831360043e+002 1.10121885607927e+014
3.17353815000828e+002 1.10613500506241e+014
3.17414790397028e+002 1.11201323324635e+014
3.17475757546793e+002 1.11897079598837e+014
3.17536716448275e+002 1.12708229640659e+014
3.17597667099624e+002 1.13634038660047e+014
3.17658609498991e+002 1.14659294146605e+014
3.17719543644527e+002 1.15748365991551e+014
3.17780469534383e+002 1.16842758675383e+014
3.17841387166710e+002 1.17864314190488e+014
3.17902296539657e+002 1.18724222956441e+014
3.17963197651377e+002 1.19335871040462e+014
3.18024090500019e+002 1.19628222919857e+014
3.18084975083735e+002 1.19556435874039e+014
3.18145851400676e+002 1.19107593735913e+014
3.18206719448992e+002 1.18301159416185e+014
3.18267579226834e+002 1.17185181236895e+014
3.18328430732352e+002 1.15829976242690e+014
3.18389273963698e+002 1.14320978899178e+014
3.18450108919023e+002 1.12752020330643e+014
3.18510935596477e+002 1.11219787667717e+014
3.18571753994210e+002 1.09819671885341e+014
3.18632564110375e+002 1.08642598160656e+014
3.18693365943121e+002 1.07771838923216e+014
3.18754159490599e+002 1.07278560398166e+014
3.18814944750961e+002 1.07215299050446e+014
3.18875721722356e+002 1.07607751469859e+014
3.18936490402936e+002 1.08446766161953e+014
3.18997250790852e+002 1.09683502008695e+014
3.19058002884254e+002 1.11230671085321e+014
3.19118746681293e+002 1.12971354703102e+014
3.19179482180120e+002 1.14774464247029e+014
3.19240209378886e+002 1.16513486355032e+014
3.19300928275741e+002 1.18083849184199e+014
3.19361638868836e+002 1.19414757933760e+014
3.19422341156323e+002 1.20473432554907e+014
3.19483035136351e+002 1.21262261503791e+014
3.19543720807072e+002 1.21811207327365e+014
3.19604398166636e+002 1.22168199667147e+014
3.19665067213195e+002 1.22389492690856e+014
3.19725727944898e+002 1.22530914642881e+014
3.19786380359898e+002 1.22640371696773e+014
3.19847024456344e+002 1.22752054271683e+014
3.19907660232387e+002 1.22883131891590e+014
3.19968287686179e+002 1.23033787272711e+014
3.20028906815869e+002 1.23190956442340e+014
3.20089517619609e+002 1.23335184671912e+014
3.20150120095550e+002 1.23448945721371e+014
3.20210714241842e+002 1.23524146934120e+014
3.20271300056637e+002 1.23566789266193e+014
3.20331877538084e+002 1.23597806985809e+014
3.20392446684335e+002 1.23650362320216e+014
3.20453007493540e+002 1.23764633253192e+014
3.20513559963851e+002 1.23981237138666e+014
3.20574104093418e+002 1.24334240658988e+014
3.20634639880392e+002 1.24844610056599e+014
3.20695167322923e+002 1.25514989745226e+014
3.20755686419163e+002 1.26326660089280e+014
3.20816197167262e+002 1.27239288701365e+014
3.20876699565371e+002 1.28193683519978e+014
3.20937193611641e+002 1.29117252656920e+014
3.20997679304223e+002 1.29931356347876e+014
3.21058156641267e+002 1.30559361310796e+014
3.21118625620925e+002 1.30934170496650e+014
3.21179086241346e+002 1.31004331594693e+014
3.21239538500682e+002 1.30738304117392e+014
3.21299982397084e+002 1.30126808336439e+014
3.21360417928702e+002 1.29183318816885e+014
3.21420845093687e+002 1.27942847938022e+014
3.21481263890191e+002 1.26459305521177e+014
3.21541674316363e+002 1.24801839256826e+014
3.21602076370354e+002 1.23050514103945e+014
3.21662470050316e+002 1.21291490960943e+014
3.21722855354399e+002 1.19611681941309e+014
3.21783232280754e+002 1.18092831484621e+014
3.21843600827532e+002 1.16805141634756e+014
3.21903960992883e+002 1.15800943095369e+014
3.21964312774959e+002 1.15109461884502e+014
3.22024656171909e+002 1.14734147183027e+014
3.22084991181886e+002 1.14653814319639e+014
3.22145317803039e+002 1.14827786758776e+014
3.22205636033520e+002 1.15203730246059e+014
3.22265945871479e+002 1.15725837001177e+014
3.22326247315067e+002 1.16341047427752e+014
3.22386540362434e+002 1.17001998648000e+014
3.22446825011733e+002 1.17666782853033e+014
3.22507101261113e+002 1.18296792166835e+014
3.22567369108725e+002 1.18854545915463e+014
3.22627628552720e+002 1.19303266785614e+014
3.22687879591249e+002 1.19609139431041e+014
3.22748122222462e+002 1.19745988179543e+014
3.22808356444511e+002 1.19701068874447e+014
3.22868582255546e+002 1.19480164728243e+014
3.22928799653718e+002 1.19110245869943e+014
3.22989008637178e+002 1.18638428185559e+014
3.23049209204076e+002 1.18126733732341e+014
3.23109401352564e+002 1.17643182960546e+014
3.23169585080792e+002 1.17250887151837e+014
3.23229760386911e+002 1.16997663099804e+014
3.23289927269071e+002 1.16908807382760e+014
3.23350085725424e+002 1.16984863368964e+014
3.23410235754120e+002 1.17204746337332e+014
3.23470377353311e+002 1.17533021891761e+014
3.23530510521146e+002 1.17929048443490e+014
3.23590635255777e+002 1.18355478048191e+014
3.23650751555354e+002 1.18784288309730e+014
3.23710859418029e+002 1.19199711913781e+014
3.23770958841952e+002 1.19598502103774e+014
3.23831049825273e+002 1.19988433906683e+014
3.23891132366144e+002 1.20385799713216e+014
3.23951206462716e+002 1.20812342708150e+014
3.24011272113139e+002 1.21291955071612e+014
3.24071329315564e+002 1.21847567522139e+014
3.24131378068141e+002 1.22498760109252e+014
3.24191418369022e+002 1.23260554107508e+014
3.24251450216358e+002 1.24143538648296e+014
3.24311473608299e+002 1.25154959872980e+014
3.24371488542996e+002 1.26299842121704e+014
3.24431495018599e+002 1.27580998004671e+014
3.24491493033260e+002 1.28997247499787e+014
3.24551482585130e+002 1.30540187623910e+014
3.24611463672358e+002 1.32190863104553e+014
3.24671436293097e+002 1.33918053662248e+014
3.24731400445496e+002 1.35679391974114e+014
3.24791356127707e+002 1.37425434241055e+014
3.24851303337879e+002 1.39105666351160e+014
3.24911242074166e+002 1.40674740691514e+014
3.24971172334716e+002 1.42097275788243e+014
3.25031094117680e+002 1.43350278656164e+014
3.25091007421210e+002 1.44423316678182e+014
3.25150912243457e+002 1.45317420905833e+014
3.25210808582570e+002 1.46043885805936e+014
3.25270696436701e+002 1.46623586391891e+014
3.25330575804001e+002 1.47086580863742e+014
3.25390446682621e+002 1.47471206326452e+014
3.25450309070710e+002 1.47821951082044e+014
3.25510162966421e+002 1.48185971162838e+014
3.25570008367903e+002 1.48608781409259e+014
3.25629845273308e+002 1.49130017715998e+014
3.25689673680786e+002 1.49780122017494e+014
3.25749493588489e+002 1.50578440631811e+014
3.25809304994566e+002 1.51532727031873e+014
3.25869107897170e+002 1.52639600751432e+014
3.25928902294449e+002 1.53885325426910e+014
3.25988688184556e+002 1.55246425102866e+014
3.26048465565642e+002 1.56690070224091e+014
3.26108234435856e+002 1.58174606775728e+014
3.26167994793350e+002 1.59650858752927e+014
3.26227746636274e+002 1.61064804268528e+014
3.26287489962780e+002 1.62361913923608e+014
3.26347224771018e+002 1.63492917879423e+014
3.26406951059138e+002 1.64420172400484e+014
3.26466668825293e+002 1.65123320993362e+014
3.26526378067631e+002 1.65602773856646e+014
3.26586078784305e+002 1.65879768163472e+014
3.26645770973466e+002 1.65992434764928e+014
3.26705454633263e+002 1.65988304371854e+014
3.26765129761847e+002 1.65914808021250e+014
3.26824796357370e+002 1.65810153139491e+014
3.26884454417982e+002 1.65697049183291e+014
3.26944103941835e+002 1.65580941107048e+014
3.27003744927078e+002 1.65452962255149e+014
3.27063377371862e+002 1.65296348407149e+014
3.27123001274339e+002 1.65094141154457e+014
3.27182616632660e+002 1.64835896954571e+014
3.27242223444974e+002 1.64521681042483e+014
3.27301821709433e+002 1.64162561930651e+014
3.27361411424187e+002 1.63777861600357e+014
3.27420992587388e+002 1.63390335700408e+014
3.27480565197186e+002 1.63020999328992e+014
3.27540129251732e+002 1.62685244479511e+014
3.27599684749176e+002 1.62391232134336e+014
3.27659231687670e+002 1.62140637413314e+014
3.27718770065365e+002 1.61931116415360e+014
3.27778299880410e+002 1.61759540694345e+014
3.27837821130958e+002 1.61625035578401e+014
3.27897333815158e+002 1.61531053564954e+014
3.27956837931161e+002 1.61486079315907e+014
3.28016333477119e+002 1.61503007470039e+014
3.28075820451182e+002 1.61597536654696e+014
3.28135298851500e+002 1.61785918277126e+014
3.28194768676226e+002 1.62082189585255e+014
3.28254229923508e+002 1.62494907656940e+014
3.28313682591499e+002 1.63023585804279e+014
3.28373126678349e+002 1.63655448075259e+014
3.28432562182209e+002 1.64363510509475e+014
3.28491989101229e+002 1.65107121289004e+014
3.28551407433561e+002 1.65835781351910e+014
3.28610817177355e+002 1.66496269158001e+014
3.28670218330761e+002 1.67041951290492e+014
3.28729610891932e+002 1.67442082597384e+014
3.28788994859017e+002 1.67688439840854e+014
3.28848370230168e+002 1.67797173515188e+014
3.28907737003534e+002 1.67805214868678e+014
3.28967095177268e+002 1.67762346770582e+014
3.29026444749519e+002 1.67721346425154e+014
3.29085785718439e+002 1.67728897342513e+014
3.29145118082178e+002 1.67819253418174e+014
3.29204441838887e+002 1.68011399052482e+014
3.29263756986717e+002 1.68309296905671e+014
3.29323063523819e+002 1.68704157073527e+014
3.29382361448343e+002 1.69177589068319e+014
3.29441650758440e+002 1.69704865094455e+014
3.29500931452262e+002 1.70258069310546e+014
3.29560203527958e+002 1.70809339284155e+014
3.29619466983680e+002 1.71334475206517e+014
3.29678721817578e+002 1.71816820356728e+014
3.29737968027804e+002 1.72250694066318e+014
3.29797205612507e+002 1.72643195469464e+014
3.29856434569840e+002 1.73013277880615e+014
3.29915654897952e+002 1.73387705672093e+014
3.29974866594994e+002 1.73794549329779e+014
3.30034069659117e+002 1.74255747567292e+014
3.30093264088473e+002 1.74780572586796e+014
3.30152449881211e+002 1.75361500665394e+014
3.30211627035483e+002 1.75973244704054e+014
3.30270795549439e+002 1.76574895028603e+014
3.30329955421230e+002 1.77114514090427e+014
3.30389106649007e+002 1.77535263126943e+014
3.30448249230921e+002 1.77782182716628e+014
3.30507383165123e+002 1.77808962461638e+014
3.30566508449762e+002 1.77584204303996e+014
3.30625625082991e+002 1.77096638310881e+014
3.30684733062960e+002 1.76358501912475e+014
3.30743832387819e+002 1.75406086219629e+014
3.30802923055720e+002 1.74296622311610e+014
3.30862005064813e+002 1.73101394960025e+014
3.30921078413249e+002 1.71896042073086e+014
3.30980143099179e+002 1.70749941524431e+014
3.31039199120754e+002 1.69716927781815e+014
3.31098246476124e+002 1.68829172438464e+014
3.31157285163440e+002 1.68095165936642e+014
3.31216315180853e+002 1.67501793401031e+014
3.31275336526514e+002 1.67019803559109e+014
3.31334349198574e+002 1.66611545436009e+014
3.31393353195183e+002 1.66239574797019e+014
3.31452348514492e+002 1.65874577132264e+014
3.31511335154652e+002 1.65501118457898e+014
3.31570313113814e+002 1.65120123912601e+014
3.31629282390128e+002 1.64747661739648e+014
3.31688242981746e+002 1.64410407968051e+014
3.31747194886818e+002 1.64138865579589e+014
3.31806138103495e+002 1.63959825617793e+014
3.31865072629927e+002 1.63889584297105e+014
3.31923998464266e+002 1.63929130640918e+014
3.31982915604662e+002 1.64062083312559e+014
3.32041824049267e+002 1.64255761004610e+014
3.32100723796230e+002 1.64465405581435e+014
3.32159614843703e+002 1.64641103883312e+014
3.32218497189836e+002 1.64736320646924e+014
3.32277370832781e+002 1.64716347060212e+014
3.32336235770688e+002 1.64564697925101e+014
3.32395092001707e+002 1.64285779882732e+014
3.32453939523990e+002 1.63903001031949e+014
3.32512778335688e+002 1.63452691271358e+014
3.32571608434951e+002 1.62975416362459e+014
3.32630429819930e+002 1.62507116417371e+014
3.32689242488775e+002 1.62072643568146e+014
3.32748046439638e+002 1.61683550114807e+014
3.32806841670670e+002 1.61340539076045e+014
3.32865628180021e+002 1.61039348098145e+014
3.32924405965842e+002 1.60777686662530e+014
3.32983175026283e+002 1.60560659503316e+014
3.33041935359496e+002 1.60402839784851e+014
3.33100686963631e+002 1.60326338326932e+014
3.33159429836840e+002 1.60355378178115e+014
3.33218163977272e+002 1.60508810837267e+014
3.33276889383079e+002 1.60792625718974e+014
3.33335606052412e+002 1.61194665805471e+014
3.33394313983421e+002 1.61683302579700e+014
3.33453013174257e+002 1.62210774941282e+014
3.33511703623071e+002 1.62720577074958e+014
3.33570385328013e+002 1.63157131627800e+014
3.33629058287235e+002 1.63475361253249e+014
3.33687722498888e+002 1.63647835693749e+014
3.33746377961121e+002 1.63667887352863e+014
3.33805024672086e+002 1.63548246149868e+014
3.33863662629934e+002 1.63316010363429e+014
3.33922291832815e+002 1.63005768251104e+014
3.33980912278880e+002 1.62653086021850e+014
3.34039523966281e+002 1.62290203214337e+014
3.34098126893167e+002 1.61944726458125e+014
3.34156721057690e+002 1.61640817813849e+014
3.34215306458000e+002 1.61401420799921e+014
3.34273883092248e+002 1.61249841270423e+014
3.34332450958586e+002 1.61209455936531e+014
3.34391010055163e+002 1.61301099867805e+014
3.34449560380130e+002 1.61538447864364e+014
3.34508101931639e+002 1.61922328330174e+014
3.34566634707840e+002 1.62435385971713e+014
3.34625158706884e+002 1.63038773825451e+014
3.34683673926922e+002 1.63672438528412e+014
3.34742180366104e+002 1.64259928126751e+014
3.34800678022582e+002 1.64717549444003e+014
3.34859166894505e+002 1.64966432877453e+014
3.34917646980026e+002 1.64945090148564e+014
3.34976118277294e+002 1.64619765602824e+014
3.35034580784460e+002 1.63990389035620e+014
3.35093034499676e+002 1.63091041534404e+014
3.35151479421092e+002 1.61985196212038e+014
3.35209915546859e+002 1.60757205383509e+014
3.35268342875127e+002 1.59502183957866e+014
3.35326761404048e+002 1.58316306026370e+014
3.35385171131772e+002 1.57288641705683e+014
3.35443572056450e+002 1.56494490304811e+014
3.35501964176233e+002 1.55989385175432e+014
3.35560347489271e+002 1.55803002590595e+014
3.35618721993716e+002 1.55933063309711e+014
3.35677087687718e+002 1.56340483486362e+014
3.35735444569428e+002 1.56947852601478e+014
3.35793792636996e+002 1.57643294122723e+014
3.35852131888574e+002 1.58290805069585e+014
3.35910462322313e+002 1.58746585483725e+014
3.35968783936363e+002 1.58879178025339e+014
3.36027096728874e+002 1.58589951816850e+014
3.36085400697998e+002 1.57829953448142e+014
3.36143695841886e+002 1.56609606704321e+014
3.36201982158688e+002 1.54999096654162e+014
3.36260259646555e+002 1.53119173561410e+014
3.36318528303638e+002 1.51124043946537e+014
3.36376788128088e+002 1.49179520131574e+014
3.36435039118055e+002 1.47440379704733e+014
3.36493281271691e+002 1.46030809146924e+014
3.36551514587145e+002 1.45030910163138e+014
3.36609739062569e+002 1.44470787734982e+014
3.36667954696114e+002 1.44332141894982e+014
3.36726161485931e+002 1.44555970092753e+014
3.36784359430169e+002 1.45054196131556e+014
3.36842548526981e+002 1.45722827717087e+014
3.36900728774516e+002 1.46454560264237e+014
3.36958900170926e+002 1.47149462014420e+014
3.37017062714361e+002 1.47723240103640e+014
3.37075216402973e+002 1.48113264911320e+014
3.37133361234911e+002 1.48282785717197e+014
3.37191497208327e+002 1.48223611187057e+014
3.37249624321372e+002 1.47957152852000e+014
3.37307742572196e+002 1.47533366246696e+014
3.37365851958950e+002 1.47026942855451e+014
3.37423952479785e+002 1.46530234333489e+014
3.37482044132852e+002 1.46142902969706e+014
3.37540126916301e+002 1.45959123112796e+014
3.37598200828284e+002 1.46054056939112e+014
3.37656265866951e+002 1.46471960814550e+014
3.37714322030452e+002 1.47218380649962e+014
3.37772369316939e+002 1.48258353088112e+014
3.37830407724563e+002 1.49521387986230e+014
3.37888437251474e+002 1.50912487715060e+014
3.37946457895823e+002 1.52326989007071e+014
3.38004469655761e+002 1.53666117944539e+014
3.38062472529438e+002 1.54850186573236e+014
3.38120466515006e+002 1.55827268580990e+014
3.38178451610615e+002 1.56576529337230e+014
3.38236427814416e+002 1.57106631475278e+014
3.38294395124560e+002 1.57450474914714e+014
3.38352353539198e+002 1.57657899663060e+014
3.38410303056479e+002 1.57787933123693e+014
3.38468243674556e+002 1.57901793649758e+014
3.38526175391579e+002 1.58057325315205e+014
3.38584098205699e+002 1.58305041413753e+014
3.38642012115066e+002 1.58685617967201e+014
3.38699917117832e+002 1.59228481718810e+014
3.38757813212147e+002 1.59951016926261e+014
3.38815700396161e+002 1.60857898771921e+014
3.38873578668027e+002 1.61940218634705e+014
3.38931448025893e+002 1.63174400418094e+014
3.38989308467913e+002 1.64521328459958e+014
3.39047159992235e+002 1.65926489112520e+014
3.39105002597011e+002 1.67322110094245e+014
3.39162836280392e+002 1.68632057239339e+014
3.39220661040528e+002 1.69779510564312e+014
3.39278476875570e+002 1.70696378215202e+014
3.39336283783670e+002 1.71332515775231e+014
3.39394081762977e+002 1.71662599921180e+014
3.39451870811643e+002 1.71689105388531e+014
3.39509650927818e+002 1.71440974374382e+014
3.39567422109654e+002 1.70968742156771e+014
3.39625184355301e+002 1.70337645377164e+014
3.39682937662909e+002 1.69620357668248e+014
3.39740682030630e+002 1.68890517705040e+014
3.39798417456614e+002 1.68217457073600e+014
3.39856143939013e+002 1.67661933204942e+014
3.39913861475976e+002 1.67272528576990e+014
3.39971570065655e+002 1.67082637782804e+014
3.40029269706201e+002 1.67108321386378e+014
3.40086960395764e+002 1.67347466411363e+014
3.40144642132496e+002 1.67780601621638e+014
3.40202314914546e+002 1.68373473684883e+014
3.40259978740065e+002 1.69081179566292e+014
3.40317633607206e+002 1.69853290594748e+014
3.40375279514117e+002 1.70639089931100e+014
3.40432916458951e+002 1.71391995119018e+014
3.40490544439858e+002 1.72072587899348e+014
3.40548163454988e+002 1.72650265903313e+014
3.40605773502493e+002 1.73103994602408e+014
3.40663374580523e+002 1.73422722768968e+014
3.40720966687229e+002 1.73605770304772e+014
3.40778549820761e+002 1.73663105029013e+014
3.40836123979272e+002 1.73615058412866e+014
3.40893689160911e+002 1.73490803690983e+014
3.40951245363829e+002 1.73324988778686e+014
3.41008792586177e+002 1.73152408672588e+014
3.41066330826106e+002 1.73001430778795e+014
3.41123860081766e+002 1.72887674728368e+014
3.41181380351309e+002 1.72809765093274e+014
3.41238891632885e+002 1.72748625312357e+014
3.41296393924645e+002 1.72670896831973e+014
3.41353887224740e+002 1.72535963867460e+014
3.41411371531320e+002 1.72305091400050e+014
3.41468846842537e+002 1.71950633569068e+014
3.41526313156540e+002 1.71463296638440e+014
3.41583770471482e+002 1.70855988385536e+014
3.41641218785512e+002 1.70163626705214e+014
3.41698658096782e+002 1.69439139020556e+014
3.41756088403442e+002 1.68746561739679e+014
3.41813509703643e+002 1.68152531384989e+014
3.41870921995536e+002 1.67717516861937e+014
3.41928325277272e+002 1.67487936261622e+014
3.41985719547001e+002 1.67490012971022e+014
3.42043104802875e+002 1.67726031599653e+014
3.42100481043043e+002 1.68173558048318e+014
3.42157848265657e+002 1.68787969580730e+014
3.42215206468868e+002 1.69508097011748e+014
3.42272555650827e+002 1.70264002622116e+014
3.42329895809683e+002 1.70985304680274e+014
3.42387226943589e+002 1.71608416030976e+014
3.42444549050694e+002 1.72081641756282e+014
3.42501862129150e+002 1.72367939665864e+014
3.42559166177107e+002 1.72445822250026e+014
3.42616461192717e+002 1.72309117546263e+014
3.42673747174129e+002 1.71966136537312e+014
3.42731024119495e+002 1.71438400142785e+014
3.42788292026966e+002 1.70758665369677e+014
3.42845550894692e+002 1.69967774362261e+014
3.42902800720824e+002 1.69110025485828e+014
3.42960041503513e+002 1.68227379700653e+014
3.43017273240910e+002 1.67353640704555e+014
3.43074495931166e+002 1.66510322576668e+014
3.43131709572430e+002 1.65705797124236e+014
3.43188914162855e+002 1.64938368445397e+014
3.43246109700590e+002 1.64202499076948e+014
3.43303296183788e+002 1.63496175251626e+014
3.43360473610597e+002 1.62826952467420e+014
3.43417641979170e+002 1.62214738044878e+014
3.43474801287657e+002 1.61690508075802e+014
3.43531951534209e+002 1.61291360054261e+014
3.43589092716976e+002 1.61053162974358e+014
3.43646224834110e+002 1.61002477729523e+014
3.43703347883761e+002 1.61149456845516e+014
3.43760461864080e+002 1.61483156910333e+014
3.43817566773218e+002 1.61970151787408e+014
3.43874662609325e+002 1.62556617283383e+014
3.43931749370553e+002 1.63173379164064e+014
3.43988827055052e+002 1.63742991361001e+014
3.44045895660973e+002 1.64187814703340e+014
3.44102955186466e+002 1.64438158190483e+014
3.44160005629683e+002 1.64439597702754e+014
3.44217046988775e+002 1.64158520847635e+014
3.44274079261892e+002 1.63584966396171e+014
3.44331102447184e+002 1.62732232784560e+014
3.44388116542803e+002 1.61633551840209e+014
3.44445121546900e+002 1.60336958751113e+014
3.44502117457625e+002 1.58899823540037e+014
3.44559104273129e+002 1.57384178590531e+014
3.44616081991563e+002 1.55853294138868e+014
3.44673050611078e+002 1.54369358542875e+014
3.44730010129824e+002 1.52991803124307e+014
3.44786960545952e+002 1.51775699178449e+014
3.44843901857614e+002 1.50769698327857e+014
3.44900834062959e+002 1.50013279459775e+014
3.44957757160139e+002 1.49533654283965e+014
3.45014671147304e+002 1.49343296667927e+014
3.45071576022605e+002 1.49439254509959e+014
3.45128471784194e+002 1.49804927160037e+014
3.45185358430220e+002 1.50414084523570e+014
3.45242235958835e+002 1.51236072545577e+014
3.45299104368189e+002 1.52240791489900e+014
3.45355963656433e+002 1.53402171058072e+014
3.45412813821719e+002 1.54699306621792e+014
3.45469654862196e+002 1.56114993187713e+014
3.45526486776015e+002 1.57632066941720e+014
3.45583309561328e+002 1.59228659571757e+014
3.45640123216285e+002 1.60873945167830e+014
3.45696927739037e+002 1.62525898227841e+014
3.45753723127735e+002 1.64131932884567e+014
3.45810509380529e+002 1.65632369969666e+014
3.45867286495570e+002 1.66965949468032e+014
3.45924054471010e+002 1.68076311758958e+014
3.45980813304998e+002 1.68918397570669e+014
3.46037562995686e+002 1.69463808890167e+014
3.46094303541225e+002 1.69704238657617e+014
3.46151034939765e+002 1.69652240299201e+014
3.46207757189456e+002 1.69339024229114e+014
3.46264470288451e+002 1.68809625012042e+014
3.46321174234899e+002 1.68116473132671e+014
3.46377869026952e+002 1.67312852573319e+014
3.46434554662760e+002 1.66447721655659e+014
3.46491231140474e+002 1.65562913921201e+014
3.46547898458244e+002 1.64693000399447e+014
3.46604556614222e+002 1.63867357269508e+014
3.46661205606559e+002 1.63113422549380e+014
3.46717845433405e+002 1.62459817932374e+014
3.46774476092911e+002 1.61937994259347e+014
3.46831097583227e+002 1.61581434456551e+014
3.46887709902505e+002 1.61422234870424e+014
3.46944313048895e+002 1.61485867026891e+014
3.47000907020549e+002 1.61785611811846e+014
3.47057491815616e+002 1.62318179263559e+014
3.47114067432248e+002 1.63061426939041e+014
3.47170633868596e+002 1.63974354924841e+014
3.47227191122810e+002 1.64999143613515e+014
3.47283739193041e+002 1.66064986909164e+014
3.47340278077439e+002 1.67093554010023e+014
3.47396807774157e+002 1.68005804256728e+014
3.47453328281344e+002 1.68729561152955e+014
3.47509839597151e+002 1.69206937725296e+014
3.47566341719729e+002 1.69400582521281e+014
3.47622834647229e+002 1.69297814215966e+014
3.47679318377802e+002 1.68911959513123e+014
3.47735792909598e+002 1.68280547910075e+014
3.47792258240768e+002 1.67460445452984e+014
3.47848714369463e+002 1.66520505515399e+014
3.47905161293834e+002 1.65532808064499e+014
3.47961599012032e+002 1.64563909375239e+014
3.48018027522207e+002 1.63667606324953e+014
3.48074446822510e+002 1.62880445698792e+014
3.48130856911092e+002 1.62220628256769e+014
3.48187257786104e+002 1.61690229325409e+014
3.48243649445696e+002 1.61280015017822e+014
3.48300031888020e+002 1.60975727969253e+014
3.48356405111226e+002 1.60764560547205e+014
3.48412769113465e+002 1.60640541600322e+014
3.48469123892887e+002 1.60607692776433e+014
3.48525469447644e+002 1.60680142696869e+014
3.48581805775886e+002 1.60879012498063e+014
3.48638132875765e+002 1.61226732302955e+014
3.48694450745430e+002 1.61740222708049e+014
3.48750759383033e+002 1.62424742568305e+014
3.48807058786724e+002 1.63270022518794e+014
3.48863348954654e+002 1.64249668952968e+014
3.48919629884975e+002 1.65323980331976e+014
3.48975901575836e+002 1.66445490518364e+014
3.49032164025389e+002 1.67565924605542e+014
3.49088417231785e+002 1.68642927339288e+014
3.49144661193173e+002 1.69644969055219e+014
3.49200895907706e+002 1.70553269183249e+014
3.49257121373533e+002 1.71360371588744e+014
3.49313337588806e+002 1.72066006679635e+014
3.49369544551676e+002 1.72671747491943e+014
3.49425742260292e+002 1.73176332616817e+014
3.49481930712807e+002 1.73573203755540e+014
3.49538109907370e+002 1.73850970937358e+014
3.49594279842133e+002 1.73996565351558e+014
3.49650440515246e+002 1.74000102075566e+014
3.49706591924860e+002 1.73860083781594e+014
3.49762734069126e+002 1.73587530978290e+014
3.49818866946195e+002 1.73207909390570e+014
3.49874990554217e+002 1.72760291470848e+014
3.49931104891344e+002 1.72293901676991e+014
3.49987209955725e+002 1.71862832944973e+014
3.50043305745513e+002 1.71520088623202e+014
3.50099392258857e+002 1.71312111622605e+014
3.50155469493909e+002 1.71274658907902e+014
3.50211537448819e+002 1.71430413035167e+014
3.50267596121738e+002 1.71788285096257e+014
3.50323645510816e+002 1.72344100324518e+014
3.50379685614206e+002 1.73082295646844e+014
3.50435716430057e+002 1.73978306879506e+014
3.50491737956520e+002 1.75001371400542e+014
3.50547750191746e+002 1.76117457275899e+014
3.50603753133885e+002 1.77291969600842e+014
3.50659746781090e+002 1.78491838104646e+014
3.50715731131509e+002 1.79686643427169e+014
3.50771706183295e+002 1.80848640512555e+014
3.50827671934598e+002 1.81951834303415e+014
3.50883628383569e+002 1.82970518950361e+014
3.50939575528358e+002 1.83877805867485e+014
3.50995513367116e+002 1.84644650193683e+014
3.51051441897995e+002 1.85239799355262e+014
3.51107361119144e+002 1.85630940417537e+014
3.51163271028715e+002 1.85787095250910e+014
3.51219171624859e+002 1.85682055310257e+014
3.51275062905726e+002 1.85298454680009e+014
3.51330944869467e+002 1.84631996619476e+014
3.51386817514233e+002 1.83695298160660e+014
3.51442680838174e+002 1.82520716518234e+014
3.51498534839442e+002 1.81161393261339e+014
3.51554379516188e+002 1.79689752182818e+014
3.51610214866561e+002 1.78192990979515e+014
3.51666040888713e+002 1.76765735458504e+014
3.51721857580795e+002 1.75500795058397e+014
3.51777664940957e+002 1.74479561315426e+014
3.51833462967350e+002 1.73763773031241e+014
3.51889251658125e+002 1.73390043158766e+014
3.51945031011433e+002 1.73367809888745e+014
3.52000801025425e+002 1.73680514075109e+014
3.52056561698251e+002 1.74289145439146e+014
3.52112313028062e+002 1.75137070870236e+014
3.52168055013010e+002 1.76155241297477e+014
3.52223787651243e+002 1.77267265955375e+014
3.52279510940915e+002 1.78394221399223e+014
3.52335224880175e+002 1.79459311979902e+014
3.52390929467173e+002 1.80392602601891e+014
3.52446624700062e+002 1.81135962536414e+014
3.52502310576992e+002 1.81648051065536e+014
3.52557987096113e+002 1.81908704235653e+014
3.52613654255576e+002 1.81921696380432e+014
3.52669312053532e+002 1.81714860004399e+014
3.52724960488132e+002 1.81337036710258e+014
3.52780599557527e+002 1.80852088584653e+014
3.52836229259868e+002 1.80330879254206e+014
3.52891849593304e+002 1.79842553115388e+014
3.52947460555988e+002 1.79446611201750e+014
3.53003062146069e+002 1.79187205984543e+014
3.53058654361699e+002 1.79090662909179e+014
3.53114237201029e+002 1.79166427816079e+014
3.53169810662208e+002 1.79410671406235e+014
3.53225374743389e+002 1.79811101290446e+014
3.53280929442721e+002 1.80351473606717e+014
3.53336474758356e+002 1.81014810321569e+014
3.53392010688445e+002 1.81785043176309e+014
3.53447537231137e+002 1.82647362080881e+014
3.53503054384585e+002 1.83587801202800e+014
3.53558562146938e+002 1.84592612221740e+014
3.53614060516348e+002 1.85647837731493e+014
3.53669549490965e+002 1.86739248415174e+014
3.53725029068940e+002 1.87852516484877e+014
3.53780499248424e+002 1.88973319102542e+014
3.53835960027568e+002 1.90087137568844e+014
3.53891411404522e+002 1.91178790997915e+014
3.53946853377438e+002 1.92232005141860e+014
3.54002285944465e+002 1.93229388414523e+014
3.54057709103756e+002 1.94153069833002e+014
3.54113122853460e+002 1.94986055287048e+014
3.54168527191728e+002 1.95714142010684e+014
3.54223922116712e+002 1.96328006264960e+014
3.54279307626562e+002 1.96824885272271e+014
3.54334683719429e+002 1.97209233710714e+014
3.54390050393463e+002 1.97491963834587e+014
3.54445407646816e+002 1.97688359201715e+014
3.54500755477638e+002 1.97815296725115e+014
3.54556093884080e+002 1.97888721883073e+014
3.54611422864292e+002 1.97922184326482e+014
3.54666742416427e+002 1.97926696780389e+014
3.54722052538633e+002 1.97911529493147e+014
3.54777353229063e+002 1.97885169580359e+014
3.54832644485867e+002 1.97855723720529e+014
3.54887926307195e+002 1.97830398815720e+014
3.54943198691199e+002 1.97814097235587e+014
3.54998461636030e+002 1.97807436665155e+014
3.55053715139837e+002 1.97804672901750e+014
3.55108959200773e+002 1.97792143975734e+014
3.55164193816987e+002 1.97747923225196e+014
3.55219418986630e+002 1.97643200641920e+014
3.55274634707854e+002 1.97445414324802e+014
3.55329840978809e+002 1.97122513401888e+014
3.55385037797646e+002 1.96647308535699e+014
3.55440225162515e+002 1.96000887646626e+014
3.55495403071568e+002 1.95174476958817e+014
3.55550571522955e+002 1.94169651824599e+014
3.55605730514827e+002 1.92997224116215e+014
3.55660880045335e+002 1.91675367187938e+014
3.55716020112630e+002 1.90227607741070e+014
3.55771150714862e+002 1.88681264110370e+014
3.55826271850182e+002 1.87066741676250e+014
3.55881383516741e+002 1.85417765358725e+014
3.55936485712690e+002 1.83772145395346e+014
3.55991578436180e+002 1.82172202441863e+014
3.56046661685361e+002 1.80663795012444e+014
3.56101735458384e+002 1.79293197205611e+014
3.56156799753400e+002 1.78101841383683e+014
3.56211854568560e+002 1.77119886579933e+014
3.56266899902014e+002 1.76360274005390e+014
3.56321935751914e+002 1.75815011382265e+014
3.56376962116409e+002 1.75454805936681e+014
3.56431978993652e+002 1.75232140742838e+014
3.56486986381792e+002 1.75086938131043e+014
3.56541984278981e+002 1.74953425679016e+014
3.56596972683369e+002 1.74766777378940e+014
3.56651951593108e+002 1.74468427439596e+014
3.56706921006347e+002 1.74009474275060e+014
3.56761880921237e+002 1.73352140801389e+014
3.56816831335930e+002 1.72469721596501e+014
3.56871772248577e+002 1.71345766727333e+014
3.56926703657327e+002 1.69973379528222e+014
3.56981625560332e+002 1.68355348708738e+014
3.57036537955743e+002 1.66505344496296e+014
3.57091440841711e+002 1.64449737919838e+014
3.57146334216385e+002 1.62229077422815e+014
3.57201218077918e+002 1.59898178681120e+014
3.57256092424459e+002 1.57524212712623e+014
3.57310957254160e+002 1.55182883619979e+014
3.57365812565171e+002 1.52953393482403e+014
3.57420658355643e+002 1.50913107116247e+014
3.57475494623727e+002 1.49132634374358e+014
3.57530321367574e+002 1.47671682584371e+014
3.57585138585335e+002 1.46575747843372e+014
3.57639946275160e+002 1.45873592625473e+014
3.57694744435200e+002 1.45575465253252e+014
3.57749533063606e+002 1.45672136419241e+014
3.57804312158528e+002 1.46135049408526e+014
3.57859081718118e+002 1.46918062890582e+014
3.57913841740527e+002 1.47961161380427e+014
3.57968592223904e+002 1.49196009039195e+014
3.58023333166401e+002 1.50552521220701e+014
3.58078064566169e+002 1.51965124467140e+014
3.58132786421359e+002 1.53377398248927e+014
3.58187498730120e+002 1.54744352126718e+014
3.58242201490605e+002 1.56032374053184e+014
3.58296894700963e+002 1.57217473979944e+014
3.58351578359346e+002 1.58282646987942e+014
3.58406252463905e+002 1.59215123950333e+014
3.58460917012790e+002 1.60004186671593e+014
3.58515572004151e+002 1.60640137642047e+014
3.58570217436141e+002 1.61114797719980e+014
3.58624853306909e+002 1.61423478873314e+014
3.58679479614606e+002 1.61567865303054e+014
3.58734096357384e+002 1.61558854884525e+014
3.58788703533392e+002 1.61418327828654e+014
3.58843301140783e+002 1.61179061116295e+014
3.58897889177705e+002 1.60882518136103e+014
3.58952467642311e+002 1.60574845501241e+014
3.59007036532752e+002 1.60301910190946e+014
3.59061595847177e+002 1.60104448148711e+014
3.59116145583738e+002 1.60014297942417e+014
3.59170685740585e+002 1.60052314192232e+014
3.59225216315869e+002 1.60228071389791e+014
3.59279737307742e+002 1.60541097935311e+014
3.59334248714354e+002 1.60983223696846e+014
3.59388750533855e+002 1.61541598363721e+014
3.59443242764396e+002 1.62201907755153e+014
3.59497725404129e+002 1.62951264223091e+014
3.59552198451204e+002 1.63780280121468e+014
3.59606661903772e+002 1.64684029875829e+014
3.59661115759983e+002 1.65661906234232e+014
3.59715560017989e+002 1.66716617827519e+014
3.59769994675940e+002 1.67852646909116e+014
3.59824419731987e+002 1.69074411131012e+014
3.59878835184280e+002 1.70384278308620e+014
3.59933241030972e+002 1.71780576838709e+014
3.59987637270211e+002 1.73255814942111e+014
3.60042023900150e+002 1.74795367929618e+014
3.60096400918939e+002 1.76376860453374e+014
3.60150768324728e+002 1.77970402812323e+014
3.60205126115669e+002 1.79539795015936e+014
3.60259474289912e+002 1.81044758655815e+014
3.60313812845609e+002 1.82444088688870e+014
3.60368141780909e+002 1.83699283130603e+014
3.60422461093964e+002 1.84777841906080e+014
3.60476770782925e+002 1.85655310143345e+014
3.60531070845941e+002 1.86315505292873e+014
3.60585361281165e+002 1.86749126577524e+014
3.60639642086747e+002 1.86951673899713e+014
3.60693913260837e+002 1.86921840676470e+014
3.60748174801587e+002 1.86661173399962e+014
3.60802426707147e+002 1.86175101675915e+014
3.60856668975668e+002 1.85474857619011e+014
3.60910901605301e+002 1.84579560134945e+014
3.60965124594197e+002 1.83517804647923e+014
3.61019337940506e+002 1.82328309033296e+014
3.61073541642379e+002 1.81059377295859e+014
3.61127735697967e+002 1.79767114018097e+014
3.61181920105421e+002 1.78512477415991e+014
3.61236094862891e+002 1.77357417091668e+014
3.61290259968529e+002 1.76360466059794e+014
3.61344415420485e+002 1.75572205143374e+014
3.61398561216910e+002 1.75030983647873e+014
3.61452697355955e+002 1.74759210967126e+014
3.61506823835770e+002 1.74760486465875e+014
3.61560940654506e+002 1.75017859471748e+014
3.61615047810315e+002 1.75493605086817e+014
3.61669145301346e+002 1.76130970343200e+014
3.61723233125751e+002 1.76858231034949e+014
3.61777311281681e+002 1.77595018421378e+014
3.61831379767286e+002 1.78260332643926e+014
3.61885438580717e+002 1.78781169995189e+014
3.61939487720125e+002 1.79100426661630e+014
3.61993527183661e+002 1.79182764320607e+014
3.62047556969475e+002 1.79017458676331e+014
3.62101577075718e+002 1.78617892869604e+014
3.62155587500541e+002 1.78018170764973e+014
3.62209588242095e+002 1.77268009251074e+014
3.62263579298531e+002 1.76427303275674e+014
3.62317560667999e+002 1.75561447507442e+014
3.62371532348650e+002 1.74737848068916e+014
3.62425494338635e+002 1.74023435516406e+014
3.62479446636106e+002 1.73482649184468e+014
3.62533389239211e+002 1.73175315287729e+014
3.62587322146103e+002 1.73153937647482e+014
3.62641245354932e+002 1.73460087565816e+014
3.62695158863849e+002 1.74119902971020e+014
3.62749062671005e+002 1.75139254015222e+014
3.62802956774550e+002 1.76499732113700e+014
3.62856841172636e+002 1.78156884665449e+014
3.62910715863413e+002 1.80041766539303e+014
3.62964580845032e+002 1.82065996441931e+014
3.63018436115643e+002 1.84129520527683e+014
3.63072281673398e+002 1.86129674863608e+014
3.63126117516447e+002 1.87970105747297e+014
3.63179943642941e+002 1.89568487174178e+014
3.63233760051031e+002 1.90862398986707e+014
3.63287566738868e+002 1.91812962540428e+014
3.63341363704602e+002 1.92405954805596e+014
3.63395150946384e+002 1.92650392474205e+014
3.63448928462366e+002 1.92575087659830e+014
3.63502696250697e+002 1.92224181389175e+014
3.63556454309529e+002 1.91652790329786e+014
3.63610202637012e+002 1.90923504947645e+014
3.63663941231298e+002 1.90103792314180e+014
3.63717670090536e+002 1.89263818504447e+014
3.63771389212878e+002 1.88474104046548e+014
3.63825098596475e+002 1.87802707377426e+014
3.63878798239477e+002 1.87312012467891e+014
3.63932488140035e+002 1.87055433105892e+014
3.63986168296301e+002 1.87074395549582e+014
3.64039838706424e+002 1.87395917999885e+014
3.64093499368555e+002 1.88031053185073e+014
3.64147150280846e+002 1.88974408007793e+014
3.64200791441447e+002 1.90204861644369e+014
3.64254422848509e+002 1.91687440187189e+014
3.64308044500182e+002 1.93376089776477e+014
3.64361656394618e+002 1.95216913995299e+014
3.64415258529967e+002 1.97151422400762e+014
3.64468850904381e+002 1.99119508151405e+014
3.64522433516009e+002 2.01062120335817e+014
3.64576006363003e+002 2.02923743980795e+014
3.64629569443513e+002 2.04654762642917e+014
3.64683122755691e+002 2.06213633730794e+014
3.64736666297686e+002 2.07568713569365e+014
3.64790200067651e+002 2.08699613176750e+014
3.64843724063735e+002 2.09598082248475e+014
3.64897238284089e+002 2.10268452912583e+014
3.64950742726865e+002 2.10727549434649e+014
3.65004237390212e+002 2.11003793312007e+014
3.65057722272282e+002 2.11135218880848e+014
3.65111197371226e+002 2.11166373311962e+014
3.65164662685195e+002 2.11144479279360e+014
3.65218118212338e+002 2.11115526376578e+014
3.65271563950807e+002 2.11120952852146e+014
3.65324999898753e+002 2.11195327923738e+014
3.65378426054327e+002 2.11365142042665e+014
3.65431842415679e+002 2.11648613661193e+014
3.65485248980960e+002 2.12056346130685e+014
3.65538645748321e+002 2.12592634019325e+014
3.65592032715913e+002 2.13257153301139e+014
3.65645409881886e+002 2.14046688091042e+014
3.65698777244391e+002 2.14956517316500e+014
3.65752134801580e+002 2.15981174306062e+014
3.65805482551602e+002 2.17114486703040e+014
3.65858820492609e+002 2.18349009550139e+014
3.65912148622751e+002 2.19675094322155e+014
3.65965466940180e+002 2.21079874504694e+014
3.66018775443046e+002 2.22546447559794e+014
3.66072074129499e+002 2.24053526114117e+014
3.66125362997691e+002 2.25575777524974e+014
3.66178642045773e+002 2.27084916253716e+014
3.66231911271894e+002 2.28551377013551e+014
3.66285170674207e+002 2.29946197075870e+014
3.66338420250862e+002 2.31242702026770e+014
3.66391660000009e+002 2.32417732981877e+014
3.66444889919799e+002 2.33452342336217e+014
3.66498110008383e+002 2.34331975288162e+014
3.66551320263913e+002 2.35046148685139e+014
3.66604520684538e+002 2.35587685914749e+014
3.66657711268410e+002 2.35951755537034e+014
3.66710892013679e+002 2.36135174429746e+014
3.66764062918496e+002 2.36136456593137e+014
3.66817223981012e+002 2.35956812978447e+014
3.66870375199378e+002 2.35601859429459e+014
3.66923516571744e+002 2.35083427756796e+014
3.66976648096262e+002 2.34420806257153e+014
3.67029769771081e+002 2.33640985123342e+014
3.67082881594354e+002 2.32777859139769e+014
3.67135983564230e+002 2.31870579123871e+014
3.67189075678860e+002 2.30961247257003e+014
3.67242157936396e+002 2.30092065752044e+014
3.67295230334988e+002 2.29302084751373e+014
3.67348292872786e+002 2.28623894256032e+014
3.67401345547942e+002 2.28080805066390e+014
3.67454388358607e+002 2.27685077964084e+014
3.67507421302931e+002 2.27437527301688e+014
3.67560444379065e+002 2.27328430375051e+014
3.67613457585159e+002 2.27339320960000e+014
3.67666460919365e+002 2.27445160264762e+014
3.67719454379834e+002 2.27616617506013e+014
3.67772437964715e+002 2.27822530331196e+014
3.67825411672161e+002 2.28032711758335e+014
3.67878375500321e+002 2.28221012602059e+014
3.67931329447347e+002 2.28368173596626e+014
3.67984273511389e+002 2.28463839863739e+014
3.68037207690598e+002 2.28507269520942e+014
3.68090131983126e+002 2.28506596968736e+014
3.68143046387121e+002 2.28476808698123e+014
3.68195950900737e+002 2.28436762460897e+014
3.68248845522122e+002 2.28405649737877e+014
3.68301730249429e+002 2.28399333889900e+014
3.68354605080807e+002 2.28427047302927e+014
3.68407470014409e+002 2.28488985814975e+014
3.68460325048383e+002 2.28575305718845e+014
3.68513170180882e+002 2.28666832970781e+014
3.68566005410056e+002 2.28737479138482e+014
3.68618830734056e+002 2.28758042186352e+014
3.68671646151032e+002 2.28700826550574e+014
3.68724451659135e+002 2.28544344379719e+014
3.68777247256517e+002 2.28277271142551e+014
3.68830032941328e+002 2.27900892290337e+014
3.68882808711719e+002 2.27429529355497e+014
3.68935574565840e+002 2.26888811735500e+014
3.68988330501842e+002 2.26312064784263e+014
3.69041076517877e+002 2.25735457513442e+014
3.69093812612095e+002 2.25192837610554e+014
3.69146538782646e+002 2.24711259335591e+014
3.69199255027682e+002 2.24307989361679e+014
3.69251961345353e+002 2.23989340535939e+014
3.69304657733811e+002 2.23751276465326e+014
3.69357344191205e+002 2.23581521334147e+014
3.69410020715687e+002 2.23462844050655e+014
3.69462687305407e+002 2.23377092558947e+014
3.69515343958517e+002 2.23309384615165e+014
3.69567990673166e+002 2.23251735432535e+014
3.69620627447507e+002 2.23205458279846e+014
3.69673254279689e+002 2.23181932995239e+014
3.69725871167864e+002 2.23201708569293e+014
3.69778478110182e+002 2.23292252393446e+014
3.69831075104794e+002 2.23484850246474e+014
3.69883662149850e+002 2.23811129173950e+014
3.69936239243503e+002 2.24299484726447e+014
3.69988806383901e+002 2.24971527826456e+014
3.70041363569197e+002 2.25838673478474e+014
3.70093910797541e+002 2.26899151677959e+014
3.70146448067084e+002 2.28135880554865e+014
3.70198975375976e+002 2.29515658684315e+014
3.70251492722369e+002 2.30989971732299e+014
3.70304000104413e+002 2.32497416530310e+014
3.70356497520258e+002 2.33967429446219e+014
3.70408984968057e+002 2.35324787574775e+014
3.70461462445959e+002 2.36494325821415e+014
3.70513929952115e+002 2.37405456700742e+014
3.70566387484676e+002 2.37996271110082e+014
3.70618835041793e+002 2.38217108967597e+014
3.70671272621617e+002 2.38033492487952e+014
3.70723700222299e+002 2.37428276270012e+014
3.70776117841988e+002 2.36402865920601e+014
3.70828525478837e+002 2.34977422158712e+014
3.70880923130996e+002 2.33190092316208e+014
3.70933310796615e+002 2.31095451223882e+014
3.70985688473846e+002 2.28762396039992e+014
3.71038056160839e+002 2.26271643539370e+014
3.71090413855745e+002 2.23712756834878e+014
3.71142761556714e+002 2.21180478367632e+014
3.71195099261899e+002 2.18770254855693e+014
3.71247426969449e+002 2.16573189626223e+014
3.71299744677515e+002 2.14670981369641e+014
3.71352052384247e+002 2.13131457760685e+014
3.71404350087798e+002 2.12005055238002e+014
3.71456637786317e+002 2.11322242881202e+014
3.71508915477956e+002 2.11091676493307e+014
3.71561183160865e+002 2.11298925254222e+014
3.71613440833195e+002 2.11905878946394e+014
3.71665688493096e+002 2.12851228720923e+014
3.71717926138720e+002 2.14052489368476e+014
3.71770153768217e+002 2.15409803129565e+014
3.71822371379739e+002 2.16811374378824e+014
3.71874578971435e+002 2.18140103114330e+014
3.71926776541457e+002 2.19280948029966e+014
3.71978964087955e+002 2.20128637123250e+014
3.72031141609081e+002 2.20595312898216e+014
3.72083309102985e+002 2.20617467591078e+014
3.72135466567817e+002 2.20161254833088e+014
3.72187614001730e+002 2.19225218211940e+014
3.72239751402872e+002 2.17839775161346e+014
3.72291878769396e+002 2.16063358560310e+014
3.72343996099452e+002 2.13975768000179e+014
3.72396103391191e+002 2.11669847907376e+014
3.72448200642764e+002 2.09242929771584e+014
3.72500287852320e+002 2.06789411263155e+014
3.72552365018012e+002 2.04395370080306e+014
3.72604432137990e+002 2.02135412904313e+014
3.72656489210405e+002 2.00071370463645e+014
3.72708536233407e+002 1.98252195492533e+014
3.72760573205148e+002 1.96714487181357e+014
3.72812600123778e+002 1.95483244844637e+014
3.72864616987447e+002 1.94572558582792e+014
3.72916623794308e+002 1.93985929226691e+014
3.72968620542510e+002 1.93715890099015e+014
3.73020607230204e+002 1.93742777808211e+014
3.73072583855542e+002 1.94032958405388e+014
3.73124550416673e+002 1.94537375586377e+014
3.73176506911749e+002 1.95191538061086e+014
3.73228453338920e+002 1.95917725604619e+014
3.73280389696338e+002 1.96629437145410e+014
3.73332315982153e+002 1.97237430181129e+014
3.73384232194515e+002 1.97656472982909e+014
3.73436138331577e+002 1.97812082555250e+014
3.73488034391487e+002 1.97646729750413e+014
3.73539920372398e+002 1.97125055178776e+014
3.73591796272460e+002 1.96237608363062e+014
3.73643662089824e+002 1.95002645076925e+014
3.73695517822640e+002 1.93465667422514e+014
3.73747363469060e+002 1.91696639283465e+014
3.73799199027234e+002 1.89785089211649e+014
3.73851024495313e+002 1.87833550460814e+014
3.73902839871448e+002 1.85949930960128e+014
3.73954645153789e+002 1.84239467001341e+014
3.74006440340488e+002 1.82796944795163e+014
3.74058225429695e+002 1.81699893925876e+014
3.74110000419560e+002 1.81003406034187e+014
3.74161765308236e+002 1.80737038710635e+014
3.74213520093872e+002 1.80903961532567e+014
3.74265264774619e+002 1.81482210545881e+014
3.74316999348628e+002 1.82427725796286e+014
3.74368723814051e+002 1.83678719087124e+014
3.74420438169037e+002 1.85160780341312e+014
3.74472142411737e+002 1.86792020643246e+014
3.74523836540303e+002 1.88487627946541e+014
3.74575520552884e+002 1.90163565209914e+014
3.74627194447633e+002 1.91739616801180e+014
3.74678858222699e+002 1.93142274759041e+014
3.74730511876234e+002 1.94307857346619e+014
3.74782155406388e+002 1.95185862945447e+014
3.74833788811312e+002 1.95742174794810e+014
3.74885412089157e+002 1.95961592906345e+014
3.74937025238073e+002 1.95849318508856e+014
3.74988628256212e+002 1.95431293166159e+014
3.75040221141724e+002 1.94753472301066e+014
3.75091803892760e+002 1.93880061845446e+014
3.75143376507470e+002 1.92890557676703e+014
3.75194938984007e+002 1.91875344503776e+014
3.75246491320519e+002 1.90929811707741e+014
3.75298033515159e+002 1.90147358647656e+014
3.75349565566077e+002 1.89612046414113e+014
3.75401087471423e+002 1.89391824121735e+014
3.75452599229349e+002 1.89533212891180e+014
3.75504100838005e+002 1.90058145952189e+014
3.75555592295543e+002 1.90963366452805e+014
3.75607073600112e+002 1.92222385006725e+014
3.75658544749864e+002 1.93789586595892e+014
3.75710005742949e+002 1.95605804731894e+014
3.75761456577519e+002 1.97604619993466e+014
3.75812897251724e+002 1.99718712541365e+014
3.75864327763714e+002 2.01885673551509e+014
3.75915748111641e+002 2.04052712903020e+014
3.75967158293656e+002 2.06179751226266e+014
3.76018558307909e+002 2.08240545721304e+014
3.76069948152551e+002 2.10221804916043e+014
3.76121327825733e+002 2.12120639061372e+014
3.76172697325605e+002 2.13941031008209e+014
3.76224056650319e+002 2.15690146265127e+014
3.76275405798025e+002 2.17375174373625e+014
3.76326744766873e+002 2.19001107396938e+014
3.76378073555016e+002 2.20569589018187e+014
3.76429392160603e+002 2.22078796970864e+014
3.76480700581786e+002 2.23524191824351e+014
3.76531998816715e+002 2.24899792058146e+014
3.76583286863540e+002 2.26199465404978e+014
3.76634564720414e+002 2.27417733357634e+014
3.76685832385485e+002 2.28549882235386e+014
3.76737089856907e+002 2.29591641904126e+014
3.76788337132828e+002 2.30539015390552e+014
3.76839574211400e+002 2.31388749797398e+014
3.76890801090774e+002 2.32139457541455e+014
3.76942017769100e+002 2.32792873316104e+014
3.76993224244530e+002 2.33354565493157e+014
3.77044420515214e+002 2.33833726846038e+014
3.77095606579302e+002 2.34242184025905e+014
3.77146782434946e+002 2.34593095176930e+014
3.77197948080297e+002 2.34899768319128e+014
3.77249103513505e+002 2.35174763357945e+014
3.77300248732721e+002 2.35429191927165e+014
3.77351383736095e+002 2.35672051562606e+014
3.77402508521780e+002 2.35909519551165e+014
3.77453623087924e+002 2.36144311296520e+014
3.77504727432680e+002 2.36375377089989e+014
3.77555821554198e+002 2.36598248349574e+014
3.77606905450628e+002 2.36806172848311e+014
3.77657979120122e+002 2.36991863386138e+014
3.77709042560831e+002 2.37149422479980e+014
3.77760095770905e+002 2.37275959780006e+014
3.77811138748494e+002 2.37372585426384e+014
3.77862171491751e+002 2.37444708596562e+014
3.77913193998824e+002 2.37501772884465e+014
3.77964206267866e+002 2.37556662102901e+014
3.78015208297028e+002 2.37624982031222e+014
3.78066200084459e+002 2.37724264753794e+014
3.78117181628311e+002 2.37872942088250e+014
3.78168152926734e+002 2.38088869145692e+014
3.78219113977879e+002 2.38387355491064e+014
3.78270064779898e+002 2.38778979380923e+014
3.78321005330940e+002 2.39267678096360e+014
3.78371935629158e+002 2.39849562084550e+014
3.78422855672700e+002 2.40512647170465e+014
3.78473765459719e+002 2.41237426706510e+014
3.78524664988365e+002 2.41998068217268e+014
3.78575554256788e+002 2.42764049959560e+014
3.78626433263140e+002 2.43502185572078e+014
3.78677302005572e+002 2.44179095768933e+014
3.78728160482234e+002 2.44764139001975e+014
3.78779008691276e+002 2.45232556678817e+014
3.78829846630851e+002 2.45568249943568e+014
3.78880674299108e+002 2.45765448493390e+014
3.78931491694198e+002 2.45828749118199e+014
3.78982298814273e+002 2.45771518605142e+014
3.79033095657482e+002 2.45613169320909e+014
3.79083882221978e+002 2.45376038888644e+014
3.79134658505909e+002 2.45082482102392e+014
3.79185424507428e+002 2.44752481297336e+014
3.79236180224685e+002 2.44401813524388e+014
3.79286925655832e+002 2.44040688205142e+014
3.79337660799017e+002 2.43672782002949e+014
3.79388385652393e+002 2.43294690957563e+014
3.79439100214111e+002 2.42895922565854e+014
3.79489804482320e+002 2.42459587489276e+014
3.79540498455173e+002 2.41963873167278e+014
3.79591182130819e+002 2.41384210749277e+014
3.79641855507409e+002 2.40695868816729e+014
3.79692518583095e+002 2.39876609303383e+014
3.79743171356026e+002 2.38909056691661e+014
3.79793813824355e+002 2.37782545204292e+014
3.79844445986231e+002 2.36494377175166e+014
3.79895067839805e+002 2.35050574333527e+014
3.79945679383229e+002 2.33466230944741e+014
3.79996280614653e+002 2.31765435646226e+014
3.80046871532227e+002 2.29980517840537e+014
3.80097452134103e+002 2.28150306194075e+014
3.80148022418431e+002 2.26317295718474e+014
3.80198582383363e+002 2.24524012238450e+014
3.80249132027048e+002 2.22809186959862e+014
3.80299671347638e+002 2.21204427025692e+014
3.80350200343284e+002 2.19731911183650e+014
3.80400719012136e+002 2.18403392723789e+014
3.80451227352345e+002 2.17220554846145e+014
3.80501725362062e+002 2.16176556845310e+014
3.80552213039437e+002 2.15258443687126e+014
3.80602690382622e+002 2.14450004703338e+014
3.80653157389768e+002 2.13734672874569e+014
3.80703614059024e+002 2.13098106834524e+014
3.80754060388542e+002 2.12530137446947e+014
3.80804496376473e+002 2.12025796671044e+014
3.80854922020967e+002 2.11585231225712e+014
3.80905337320176e+002 2.11212460116704e+014
3.80955742272250e+002 2.10913129326294e+014
3.81006136875339e+002 2.10691604441226e+014
3.81056521127595e+002 2.10547898231029e+014
3.81106895027168e+002 2.10475022856586e+014
3.81157258572210e+002 2.10457326813702e+014
3.81207611760870e+002 2.10470196136525e+014
3.81257954591301e+002 2.10481228520582e+014
3.81308287061651e+002 2.10452736573007e+014
3.81358609170074e+002 2.10345247404516e+014
3.81408920914718e+002 2.10121496528482e+014
3.81459222293735e+002 2.09750242543791e+014
3.81509513305276e+002 2.09209152366710e+014
3.81559793947492e+002 2.08486170515249e+014
3.81610064218532e+002 2.07579209201739e+014
3.81660324116549e+002 2.06494502986109e+014
3.81710573639693e+002 2.05244314299459e+014
3.81760812786114e+002 2.03844712843100e+014
3.81811041553964e+002 2.02313914642656e+014
3.81861259941394e+002 2.00671303935576e+014
3.81911467946553e+002 1.98936951789327e+014
3.81961665567593e+002 1.97131325558333e+014
3.82011852802665e+002 1.95274977414188e+014
3.82062029649919e+002 1.93388190738073e+014
3.82112196107506e+002 1.91490671087785e+014
3.82162352173578e+002 1.89601308834234e+014
3.82212497846284e+002 1.87737897649892e+014
3.82262633123776e+002 1.85916626722084e+014
3.82312758004204e+002 1.84151254913885e+014
3.82362872485719e+002 1.82452074021237e+014
3.82412976566473e+002 1.80824972783678e+014
3.82463070244615e+002 1.79271033949016e+014
3.82513153518296e+002 1.77787059880897e+014
3.82563226385668e+002 1.76367179712951e+014
3.82613288844882e+002 1.75005289041213e+014
3.82663340894087e+002 1.73697691143139e+014
3.82713382531434e+002 1.72445163212149e+014
3.82763413755076e+002 1.71253847129617e+014
3.82813434563161e+002 1.70134754116374e+014
3.82863444953842e+002 1.69102083689660e+014
3.82913444925269e+002 1.68170853565120e+014
3.82963434475592e+002 1.67354467561984e+014
3.83013413602963e+002 1.66662794679479e+014
3.83063382305532e+002 1.66101102109285e+014
3.83113340581450e+002 1.65669866276960e+014
3.83163288428868e+002 1.65365240554753e+014
3.83213225845937e+002 1.65179897721349e+014
3.83263152830807e+002 1.65104042263716e+014
3.83313069381629e+002 1.65126452188205e+014
3.83362975496554e+002 1.65235382573314e+014
3.83412871173733e+002 1.65419118068640e+014
3.83462756411317e+002 1.65666021345743e+014
3.83512631207456e+002 1.65964101772108e+014
3.83562495560301e+002 1.66300310007078e+014
3.83612349468003e+002 1.66659841354689e+014
3.83662192928713e+002 1.67025705594284e+014
3.83712025940582e+002 1.67378768291883e+014
3.83761848501760e+002 1.67698425289023e+014
3.83811660610398e+002 1.67963998857764e+014
3.83861462264646e+002 1.68156791458894e+014
3.83911253462657e+002 1.68262520030519e+014
3.83961034202580e+002 1.68273670916025e+014
3.84010804482567e+002 1.68191261181608e+014
3.84060564300767e+002 1.68025605307310e+014
3.84110313655333e+002 1.67795924963462e+014
3.84160052544414e+002 1.67528907275013e+014
3.84209780966161e+002 1.67256515645717e+014
3.84259498918726e+002 1.67013434500700e+014
3.84309206400259e+002 1.66834494422224e+014
3.84358903408911e+002 1.66752329512933e+014
3.84408589942832e+002 1.66795423881904e+014
3.84458266000174e+002 1.66986641039688e+014
3.84507931579087e+002 1.67342288448061e+014
3.84557586677722e+002 1.67871717718695e+014
3.84607231294230e+002 1.68577395091779e+014
3.84656865426762e+002 1.69455344506067e+014
3.84706489073468e+002 1.70495911755009e+014
3.84756102232499e+002 1.71684877549081e+014
3.84805704902006e+002 1.73004932220309e+014
3.84855297080139e+002 1.74437352477196e+014
3.84904878765051e+002 1.75963519834668e+014
3.84954449954890e+002 1.77565920162003e+014
3.85004010647809e+002 1.79228533960961e+014
3.85053560841958e+002 1.80936852581573e+014
3.85103100535487e+002 1.82677837035028e+014
3.85152629726548e+002 1.84439913230544e+014
3.85202148413292e+002 1.86212817989497e+014
3.85251656593868e+002 1.87987056714431e+014
3.85301154266428e+002 1.89752933538354e+014
3.85350641429123e+002 1.91499357944382e+014
3.85400118080104e+002 1.93212728198102e+014
3.85449584217520e+002 1.94876137166969e+014
3.85499039839524e+002 1.96469041824314e+014
3.85548484944266e+002 1.97967442969366e+014
3.85597919529896e+002 1.99344540452881e+014
3.85647343594565e+002 2.00571786589275e+014
3.85696757136425e+002 2.01620295206992e+014
3.85746160153626e+002 2.02462636353559e+014
3.85795552644319e+002 2.03075033649801e+014
3.85844934606654e+002 2.03439816605775e+014
3.85894306038783e+002 2.03547768913093e+014
3.85943666938856e+002 2.03399944505808e+014
3.85993017305023e+002 2.03008662645272e+014
3.86042357135437e+002 2.02397610970480e+014
3.86091686428247e+002 2.01601103580029e+014
3.86141005181605e+002 2.00662527424386e+014
3.86190313393660e+002 1.99631988365018e+014
3.86239611062565e+002 1.98563252956398e+014
3.86288898186469e+002 1.97510247994699e+014
3.86338174763524e+002 1.96523507836361e+014
3.86387440791880e+002 1.95646975972498e+014
3.86436696269688e+002 1.94915499836515e+014
3.86485941195099e+002 1.94353259983382e+014
3.86535175566264e+002 1.93973245711605e+014
3.86584399381333e+002 1.93777701320729e+014
3.86633612638457e+002 1.93759257661784e+014
3.86682815335788e+002 1.93902349666974e+014
3.86732007471475e+002 1.94184593658109e+014
3.86781189043670e+002 1.94578016150583e+014
3.86830360050524e+002 1.95050239470491e+014
3.86879520490186e+002 1.95565821361370e+014
3.86928670360809e+002 1.96087918364296e+014
3.86977809660542e+002 1.96580362618949e+014
3.87026938387537e+002 1.97010134043991e+014
3.87076056539945e+002 1.97350053501982e+014
3.87125164115915e+002 1.97581340962266e+014
3.87174261113600e+002 1.97695579524211e+014
3.87223347531149e+002 1.97695689298746e+014
3.87272423366714e+002 1.97595708173137e+014
3.87321488618446e+002 1.97419374205292e+014
3.87370543284494e+002 1.97197638499829e+014
3.87419587363010e+002 1.96965359532868e+014
3.87468620852145e+002 1.96757601619087e+014
3.87517643750050e+002 1.96606118232851e+014
3.87566656054875e+002 1.96536593232053e+014
3.87615657764771e+002 1.96566980142334e+014
3.87664648877888e+002 1.96706952114065e+014
3.87713629392379e+002 1.96958254670719e+014
3.87762599306393e+002 1.97315716928685e+014
3.87811558618081e+002 1.97768735809710e+014
3.87860507325594e+002 1.98303086328687e+014
3.87909445427083e+002 1.98902908222105e+014
3.87958372920699e+002 1.99552709250462e+014
3.88007289804592e+002 2.00239196994270e+014
3.88056196076914e+002 2.00952664095757e+014
3.88105091735814e+002 2.01687560892615e+014
3.88153976779444e+002 2.02441964219884e+014
3.88202851205955e+002 2.03215998111160e+014
3.88251715013497e+002 2.04009731604294e+014
3.88300568200222e+002 2.04821328992021e+014
3.88349410764279e+002 2.05646034399405e+014
3.88398242703820e+002 2.06476064151902e+014
3.88447064016996e+002 2.07301034130352e+014
3.88495874701957e+002 2.08108454946021e+014
3.88544674756854e+002 2.08884070419142e+014
3.88593464179838e+002 2.09612158620969e+014
3.88642242969060e+002 2.10276129796666e+014
3.88691011122670e+002 2.10859740846973e+014
3.88739768638820e+002 2.11349009315028e+014
3.88788515515659e+002 2.11734539041780e+014
3.88837251751340e+002 2.12013645449799e+014
3.88885977344012e+002 2.12191609643030e+014
3.88934692291827e+002 2.12281684857287e+014
3.88983396592935e+002 2.12303958359108e+014
3.89032090245487e+002 2.12283520371608e+014
3.89080773247634e+002 2.12248418629907e+014
3.89129445597526e+002 2.12227675129423e+014
3.89178107293315e+002 2.12249456980492e+014
3.89226758333151e+002 2.12339467529199e+014
3.89275398715185e+002 2.12519689903562e+014
3.89324028437568e+002 2.12807626166915e+014
3.89372647498451e+002 2.13216078932080e+014
3.89421255895984e+002 2.13753387265535e+014
3.89469853628318e+002 2.14423942725991e+014
3.89518440693604e+002 2.15228802668084e+014
3.89567017089993e+002 2.16166268673940e+014
3.89615582815635e+002 2.17232380922965e+014
3.89664137868682e+002 2.18421354541521e+014
3.89712682247284e+002 2.19725992944099e+014
3.89761215949592e+002 2.21138027465120e+014
3.89809738973756e+002 2.22648217621017e+014
3.89858251317928e+002 2.24246039451293e+014
3.89906752980258e+002 2.25918970229116e+014
3.89955243958898e+002 2.27651651604769e+014
3.90003724251997e+002 2.29425353877880e+014
3.90052193857707e+002 2.31218015837067e+014
3.90100652774178e+002 2.33004785311433e+014
3.90149100999562e+002 2.34758719034903e+014
3.90197538532009e+002 2.36451342942895e+014
3.90245965369669e+002 2.38053076214367e+014
3.90294381510695e+002 2.39533802285308e+014
3.90342786953235e+002 2.40863884400268e+014
3.90391181695442e+002 2.42015686703668e+014
3.90439565735466e+002 2.42965390660027e+014
3.90487939071458e+002 2.43694765741758e+014
3.90536301701568e+002 2.44192562454132e+014
3.90584653623948e+002 2.44455265776232e+014
3.90632994836747e+002 2.44487069111499e+014
3.90681325338118e+002 2.44299140924625e+014
3.90729645126211e+002 2.43908489003721e+014
3.90777954199176e+002 2.43336784444210e+014
3.90826252555164e+002 2.42609285302617e+014
3.90874540192327e+002 2.41753680564617e+014
3.90922817108814e+002 2.40798594728735e+014
3.90971083302778e+002 2.39771774979224e+014
3.91019338772367e+002 2.38698361358977e+014
3.91067583515734e+002 2.37599727580082e+014
3.91115817531030e+002 2.36493084900536e+014
3.91164040816403e+002 2.35391653934371e+014
3.91212253370007e+002 2.34305065386673e+014
3.91260455189991e+002 2.33239779688613e+014
3.91308646274507e+002 2.32199476721718e+014
3.91356826621704e+002 2.31185387209835e+014
3.91404996229734e+002 2.30196494821589e+014
3.91453155096748e+002 2.29229593164837e+014
3.91501303220897e+002 2.28279323003681e+014
3.91549440600330e+002 2.27338361136913e+014
3.91597567233200e+002 2.26397790806118e+014
3.91645683117656e+002 2.25447502139712e+014
3.91693788251850e+002 2.24476469242425e+014
3.91741882633933e+002 2.23472950547817e+014
3.91789966262054e+002 2.22424847487193e+014
3.91838039134365e+002 2.21320424733865e+014
3.91886101249018e+002 2.20149374907423e+014
3.91934152604162e+002 2.18904018746469e+014
3.91982193197948e+002 2.17580423530772e+014
3.92030223028527e+002 2.16179343169866e+014
3.92078242094050e+002 2.14706959082729e+014
3.92126250392668e+002 2.13175353176944e+014
3.92174247922531e+002 2.11602558477472e+014
3.92222234681791e+002 2.10012037273853e+014
3.92270210668598e+002 2.08431558167684e+014
3.92318175881103e+002 2.06891581820764e+014
3.92366130317456e+002 2.05423324105166e+014
3.92414073975809e+002 2.04056653207843e+014
3.92462006854312e+002 2.02817974472562e+014
3.92509928951116e+002 2.01728309471830e+014
3.92557840264372e+002 2.00801820592781e+014
3.92605740792231e+002 2.00044978958156e+014
3.92653630532843e+002 1.99456416342640e+014
3.92701509484359e+002 1.99027341233827e+014
3.92749377644930e+002 1.98742341158205e+014
3.92797235012707e+002 1.98580430927290e+014
3.92845081585841e+002 1.98516249619586e+014
3.92892917362482e+002 1.98521301241470e+014
3.92940742340781e+002 1.98565122566291e+014
3.92988556518889e+002 1.98616320990611e+014
3.93036359894957e+002 1.98643535413601e+014
3.93084152467136e+002 1.98616424720111e+014
3.93131934233575e+002 1.98506717239344e+014
3.93179705192427e+002 1.98289238419318e+014
3.93227465341842e+002 1.97942810023567e+014
3.93275214679971e+002 1.97451010076664e+014
3.93322953204964e+002 1.96802875128113e+014
3.93370680914972e+002 1.95993589712215e+014
3.93418397808147e+002 1.95025075387762e+014
3.93466103882638e+002 1.93906315375351e+014
3.93513799136597e+002 1.92653318740389e+014
3.93561483568175e+002 1.91288750762317e+014
3.93609157175521e+002 1.89841285371478e+014
3.93656819956788e+002 1.88344649018908e+014
3.93704471910126e+002 1.86836260040008e+014
3.93752113033685e+002 1.85355450182637e+014
3.93799743325617e+002 1.83941437839600e+014
3.93847362784072e+002 1.82631332657664e+014
3.93894971407201e+002 1.81458382466152e+014
3.93942569193154e+002 1.80450512303573e+014
3.93990156140084e+002 1.79629124479444e+014
3.94037732246139e+002 1.79008203815701e+014
3.94085297509472e+002 1.78593899200468e+014
3.94132851928233e+002 1.78384771515654e+014
3.94180395500572e+002 1.78372749870744e+014
3.94227928224642e+002 1.78544616939897e+014
3.94275450098591e+002 1.78883693663741e+014
3.94322961120572e+002 1.79371392495971e+014
3.94370461288734e+002 1.79988431805469e+014
3.94417950601229e+002 1.80715671585971e+014
3.94465429056208e+002 1.81534666017870e+014
3.94512896651821e+002 1.82428084163585e+014
3.94560353386219e+002 1.83380112239221e+014
3.94607799257553e+002 1.84376840790602e+014
3.94655234263974e+002 1.85406518807605e+014
3.94702658403632e+002 1.86459501325101e+014
3.94750071674678e+002 1.87527779955246e+014
3.94797474075264e+002 1.88604152668917e+014
3.94844865603539e+002 1.89681281050482e+014
3.94892246257655e+002 1.90750990971471e+014
3.94939616035762e+002 1.91804121630613e+014
3.94986974936012e+002 1.92831016966877e+014
3.95034322956555e+002 1.93822475628707e+014
3.95081660095541e+002 1.94770770186298e+014
3.95128986351122e+002 1.95670333342621e+014
3.95176301721448e+002 1.96517900185310e+014
3.95223606204671e+002 1.97312189495496e+014
3.95270899798940e+002 1.98053435704408e+014
3.95318182502407e+002 1.98743131709724e+014
3.95365454313223e+002 1.99384205072086e+014
3.95412715229538e+002 1.99981623250442e+014
3.95459965249503e+002 2.00543217805846e+014
3.95507204371270e+002 2.01080400493499e+014
3.95554432592987e+002 2.01608431777002e+014
3.95601649912808e+002 2.02145997890226e+014
3.95648856328881e+002 2.02714053199998e+014
3.95696051839359e+002 2.03334140658213e+014
3.95743236442392e+002 2.04026601664973e+014
3.95790410136130e+002 2.04809100569157e+014
3.95837572918725e+002 2.05695695228500e+014
3.95884724788327e+002 2.06696406287389e+014
3.95931865743087e+002 2.07817062829340e+014
3.95978995781156e+002 2.09059225698000e+014
3.96026114900684e+002 2.10420137932063e+014
3.96073223099823e+002 2.11892769192806e+014
3.96120320376724e+002 2.13466019529389e+014
3.96167406729536e+002 2.15125081739716e+014
3.96214482156411e+002 2.16851927994611e+014
3.96261546655499e+002 2.18625909504507e+014
3.96308600224952e+002 2.20424460183635e+014
3.96355642862920e+002 2.22223814082409e+014
3.96402674567554e+002 2.23999542834378e+014
3.96449695337005e+002 2.25726726630606e+014
3.96496705169424e+002 2.27379760632494e+014
3.96543704062960e+002 2.28932057881324e+014
3.96590692015766e+002 2.30356042427001e+014
3.96637669025992e+002 2.31623723850901e+014
3.96684635091788e+002 2.32707883473681e+014
3.96731590211306e+002 2.33583674447736e+014
3.96778534382697e+002 2.34230359553263e+014
3.96825467604110e+002 2.34632954989977e+014
3.96872389873697e+002 2.34783608287802e+014
3.96919301189609e+002 2.34682559749880e+014
3.96966201549996e+002 2.34338561034933e+014
3.97013090953010e+002 2.33768704159159e+014
3.97059969396801e+002 2.32997732640133e+014
3.97106836879519e+002 2.32056982961820e+014
3.97153693399316e+002 2.30983093845120e+014
3.97200538954343e+002 2.29816563923255e+014
3.97247373542750e+002 2.28600217081197e+014
3.97294197162687e+002 2.27377675730775e+014
3.97341009812307e+002 2.26191988156460e+014
3.97387811489759e+002 2.25084539181261e+014
3.97434602193195e+002 2.24094292517821e+014
3.97481381920764e+002 2.23257330399009e+014
3.97528150670619e+002 2.22606621013775e+014
3.97574908440910e+002 2.22171939101685e+014
3.97621655229786e+002 2.21979843623985e+014
3.97668391035401e+002 2.22053581089327e+014
3.97715115855903e+002 2.22412791869859e+014
3.97761829689445e+002 2.23072993993987e+014
3.97808532534176e+002 2.24044957935182e+014
3.97855224388247e+002 2.25334158774987e+014
3.97901905249810e+002 2.26940438003977e+014
3.97948575117015e+002 2.28857881351124e+014
3.97995233988013e+002 2.31074845605633e+014
3.98041881860954e+002 2.33574106506283e+014
3.98088518733990e+002 2.36333186983477e+014
3.98135144605271e+002 2.39324944322162e+014
3.98181759472949e+002 2.42518409099350e+014
3.98228363335173e+002 2.45879766203259e+014
3.98274956190095e+002 2.49373368814320e+014
3.98321538035865e+002 2.52962785503353e+014
3.98368108870634e+002 2.56611975959186e+014
3.98414668692553e+002 2.60286641198271e+014
3.98461217499774e+002 2.63955605854677e+014
3.98507755290445e+002 2.67591924133700e+014
3.98554282062719e+002 2.71173427011965e+014
3.98600797814747e+002 2.74682653248686e+014
3.98647302544678e+002 2.78106366247278e+014
3.98693796250664e+002 2.81434963735679e+014
3.98740278930855e+002 2.84661990627037e+014
3.98786750583403e+002 2.87783787900157e+014
3.98833211206458e+002 2.90799206735044e+014
3.98879660798171e+002 2.93709323971200e+014
3.98926099356693e+002 2.96517127513116e+014
3.98972526880174e+002 2.99227123432285e+014
3.99018943366765e+002 3.01844783827626e+014
3.99065348814618e+002 3.04375804257275e+014
3.99111743221882e+002 3.06825291352880e+014
3.99158126586709e+002 3.09197132828675e+014
3.99204498907250e+002 3.11493752871749e+014
3.99250860181655e+002 3.13716218004790e+014
3.99297210408075e+002 3.15864424781110e+014
3.99343549584660e+002 3.17937097159273e+014
3.99389877709562e+002 3.19931577402825e+014
3.99436194780932e+002 3.21843692985281e+014
3.99482500796920e+002 3.23668048941375e+014
3.99528795755677e+002 3.25398861691424e+014
3.99575079655354e+002 3.27031114221137e+014
3.99621352494101e+002 3.28561647007084e+014
3.99667614270070e+002 3.29989907158354e+014
3.99713864981411e+002 3.31318318352368e+014
3.99760104626274e+002 3.32552388798882e+014
3.99806333202812e+002 3.33700659611644e+014
3.99852550709174e+002 3.34774498990402e+014
3.99898757143511e+002 3.35787699676500e+014
3.99944952503975e+002 3.36755859830941e+014
3.99991136788715e+002 3.37695542724469e+014
4.00037309995884e+002 3.38623169285307e+014
4.00083472123630e+002 3.39553571480177e+014
4.00129623170106e+002 3.40498242738952e+014
4.00175763133462e+002 3.41463576709343e+014
4.00221892011849e+002 3.42449618250777e+014
4.00268009803418e+002 3.43449834350968e+014
4.00314116506319e+002 3.44452073639783e+014
4.00360212118703e+002 3.45440399818474e+014
4.00406296638722e+002 3.46397170604755e+014
4.00452370064525e+002 3.47304789395081e+014
4.00498432394264e+002 3.48146912178237e+014
4.00544483626089e+002 3.48909269037728e+014
4.00590523758151e+002 3.49580399855990e+014
4.00636552788602e+002 3.50152464598335e+014
4.00682570715591e+002 3.50622039161059e+014
4.00728577537270e+002 3.50990657970265e+014
4.00774573251789e+002 3.51264892268427e+014
4.00820557857300e+002 3.51455880529086e+014
4.00866531351952e+002 3.51578340015636e+014
4.00912493733897e+002 3.51649157064790e+014
4.00958445001286e+002 3.51685726930624e+014
4.01004385152269e+002 3.51704318172493e+014
4.01050314184997e+002 3.51718805224135e+014
4.01096232097621e+002 3.51740039124026e+014
4.01142138888291e+002 3.51775890962157e+014
4.01188034555160e+002 3.51831728041366e+014
4.01233919096376e+002 3.51910948025507e+014
4.01279792510092e+002 3.52015289686088e+014
4.01325654794457e+002 3.52144873561468e+014
4.01371505947623e+002 3.52298129602874e+014
4.01417345967741e+002 3.52471819790796e+014
4.01463174852961e+002 3.52661276444626e+014
4.01508992601434e+002 3.52860855948018e+014
4.01554799211310e+002 3.53064529739411e+014
4.01600594680742e+002 3.53266504736670e+014
4.01646379007878e+002 3.53461754801927e+014
4.01692152190871e+002 3.53646348493815e+014
4.01737914227871e+002 3.53817514554738e+014
4.01783665117029e+002 3.53973501779000e+014
4.01829404856496e+002 3.54113403850498e+014
4.01875133444421e+002 3.54237132782037e+014
4.01920850878957e+002 3.54345590793235e+014
4.01966557158254e+002 3.54440890365838e+014
4.02012252280463e+002 3.54526359353877e+014
4.02057936243734e+002 3.54606154430279e+014
4.02103609046218e+002 3.54684551129755e+014
4.02149270686067e+002 3.54765213201929e+014
4.02194921161430e+002 3.54850795634874e+014
4.02240560470460e+002 3.54943064282759e+014
4.02286188611305e+002 3.55043441931731e+014
4.02331805582118e+002 3.55153696417790e+014
4.02377411381049e+002 3.55276476581480e+014
4.02423006006249e+002 3.55415536138573e+014
4.02468589455869e+002 3.55575636384431e+014
4.02514161728059e+002 3.55762186317022e+014
4.02559722820971e+002 3.55980663412664e+014
4.02605272732754e+002 3.56235839533320e+014
4.02650811461560e+002 3.56530871221350e+014
4.02696339005540e+002 3.56866384494806e+014
4.02741855362844e+002 3.57239717474639e+014
4.02787360531624e+002 3.57644435917391e+014
4.02832854510029e+002 3.58070145156055e+014
4.02878337296212e+002 3.58502561509605e+014
4.02923808888321e+002 3.58923821991755e+014
4.02969269284510e+002 3.59313062222256e+014
4.03014718482927e+002 3.59647310254897e+014
4.03060156481724e+002 3.59902696632240e+014
4.03105583279052e+002 3.60055906003592e+014
4.03150998873062e+002 3.60085757653847e+014
4.03196403261904e+002 3.59974809728503e+014
4.03241796443729e+002 3.59710892794261e+014
4.03287178416688e+002 3.59288437518915e+014
4.03332549178932e+002 3.58709392107073e+014
4.03377908728611e+002 3.57983510689166e+014
4.03423257063877e+002 3.57127902297102e+014
4.03468594182879e+002 3.56165932469250e+014
4.03513920083770e+002 3.55125733239219e+014
4.03559234764699e+002 3.54038596253824e+014
4.03604538223817e+002 3.52937399407772e+014
4.03649830459276e+002 3.51855083744194e+014
4.03695111469226e+002 3.50823178442955e+014
4.03740381251818e+002 3.49870466885447e+014
4.03785639805202e+002 3.49021969634877e+014
4.03830887127530e+002 3.48298356252346e+014
4.03876123216952e+002 3.47715704020545e+014
4.03921348071619e+002 3.47285344779319e+014
4.03966561689682e+002 3.47013544944926e+014
4.04011764069291e+002 3.46900954884519e+014
4.04056955208598e+002 3.46941993210334e+014
4.04102135105753e+002 3.47124428091444e+014
4.04147303758906e+002 3.47429342065979e+014
4.04192461166210e+002 3.47831540102870e+014
4.04237607325814e+002 3.48300409646414e+014
4.04282742235869e+002 3.48801274787194e+014
4.04327865894527e+002 3.49297272868178e+014
4.04372978299938e+002 3.49751627484931e+014
4.04418079450252e+002 3.50129966491331e+014
4.04463169343620e+002 3.50402246545479e+014
4.04508247978194e+002 3.50544038337014e+014
4.04553315352124e+002 3.50537296393687e+014
4.04598371463561e+002 3.50370993444599e+014
4.04643416310656e+002 3.50041901296990e+014
4.04688449891559e+002 3.49555405432700e+014
4.04733472204421e+002 3.48925864278673e+014
4.04778483247394e+002 3.48175992644201e+014
4.04823483018627e+002 3.47335100665782e+014
4.04868471516272e+002 3.46436493989872e+014
4.04913448738479e+002 3.45514601201711e+014
4.04958414683399e+002 3.44602324278844e+014
4.05003369349184e+002 3.43728869318932e+014
4.05048312733983e+002 3.42918153353196e+014
4.05093244835948e+002 3.42187880995432e+014
4.05138165653229e+002 3.41549403804091e+014
4.05183075183977e+002 3.41008347911968e+014
4.05227973426344e+002 3.40565728232808e+014
4.05272860378479e+002 3.40219077981647e+014
4.05317736038533e+002 3.39963212713894e+014
4.05362600404658e+002 3.39790600490601e+014
4.05407453475004e+002 3.39691651635252e+014
4.05452295247722e+002 3.39655294955314e+014
4.05497125720963e+002 3.39669936048036e+014
4.05541944892877e+002 3.39724545066734e+014
4.05586752761615e+002 3.39809501962844e+014
4.05631549325329e+002 3.39917020376182e+014
4.05676334582168e+002 3.40041271109265e+014
4.05721108530284e+002 3.40178435152306e+014
4.05765871167828e+002 3.40326739736703e+014
4.05810622492949e+002 3.40486261940633e+014
4.05855362503800e+002 3.40658225354995e+014
4.05900091198531e+002 3.40843780378981e+014
4.05944808575292e+002 3.41042654010769e+014
4.05989514632235e+002 3.41252236271612e+014
4.06034209367510e+002 3.41467454884060e+014
4.06078892779267e+002 3.41681326235545e+014
4.06123564865659e+002 3.41885719509982e+014
4.06168225624835e+002 3.42071892652473e+014
4.06212875054947e+002 3.42230700395210e+014
4.06257513154145e+002 3.42352728413790e+014
4.06302139920579e+002 3.42428693278022e+014
4.06346755352402e+002 3.42450242516935e+014
4.06391359447763e+002 3.42411014837213e+014
4.06435952204813e+002 3.42307710565685e+014
4.06480533621704e+002 3.42141007869663e+014
4.06525103696585e+002 3.41916270528594e+014
4.06569662427608e+002 3.41643956310237e+014
4.06614209812924e+002 3.41339476497882e+014
4.06658745850683e+002 3.41022188340096e+014
4.06703270539036e+002 3.40713417420401e+014
4.06747783876133e+002 3.40433862617834e+014
4.06792285860127e+002 3.40201146743740e+014
4.06836776489167e+002 3.40028315948342e+014
4.06881255761404e+002 3.39923678292046e+014
4.06925723674989e+002 3.39891738797118e+014
4.06970180228073e+002 3.39934533061288e+014
4.07014625418807e+002 3.40052640056776e+014
4.07059059245341e+002 3.40245528376502e+014
4.07103481705826e+002 3.40511358837318e+014
4.07147892798414e+002 3.40846632719089e+014
4.07192292521254e+002 3.41246024263160e+014
4.07236680872497e+002 3.41702499025100e+014
4.07281057850295e+002 3.42207607958577e+014
4.07325423452798e+002 3.42751802352425e+014
4.07369777678158e+002 3.43324698875943e+014
4.07414120524523e+002 3.43915312017935e+014
4.07458451990047e+002 3.44512267880975e+014
4.07502772072879e+002 3.45103950650370e+014
4.07547080771169e+002 3.45678519037126e+014
4.07591378083070e+002 3.46223835569867e+014
4.07635664006732e+002 3.46727513818360e+014
4.07679938540305e+002 3.47177351282665e+014
4.07724201681940e+002 3.47562270024449e+014
4.07768453429788e+002 3.47873585498702e+014
4.07812693782001e+002 3.48106168630325e+014
4.07856922736727e+002 3.48259050979309e+014
4.07901140292120e+002 3.48335273091234e+014
4.07945346446328e+002 3.48341115817764e+014
4.07989541197504e+002 3.48285050673171e+014
4.08033724543797e+002 3.48176691619228e+014
4.08077896483360e+002 3.48025831074984e+014
4.08122057014341e+002 3.47841505858598e+014
4.08166206134893e+002 3.47631090609008e+014
4.08210343843165e+002 3.47399585514038e+014
4.08254470137310e+002 3.47149363723921e+014
4.08298585015477e+002 3.46880536360390e+014
4.08342688475817e+002 3.46591837078253e+014
4.08386780516482e+002 3.46281715145199e+014
4.08430861135621e+002 3.45949318170435e+014
4.08474930331387e+002 3.45595222461762e+014
4.08518988101929e+002 3.45221963683482e+014
4.08563034445398e+002 3.44834467220291e+014
4.08607069359945e+002 3.44440364374977e+014
4.08651092843721e+002 3.44050043639718e+014
4.08695104894877e+002 3.43676276897661e+014
4.08739105511563e+002 3.43333407505626e+014
4.08783094691931e+002 3.43036279876339e+014
4.08827072434131e+002 3.42799184706215e+014
